PE IR                   SPECTRUM    ASCII       PEDS        1.60        
  -1
~SP.SP
18/03/23
18:17:30.00
18/03/23
18:17:30.00
pili

650.000000
4









SPECTRUM 100,CPU32 MAIN 00.02.8200 12-DECEMBER-2006 10:00:00
MIR TGS
MIR
OPTKBR
78890
0.200000

4.000000
STRONG
RATIO
SPECTRUM
MAGNITUDE
UNIVERSAL ATR
DOUBLE

COMBINED


0


#HDR
-1
-1
#GR
CM-1
%T
0.00002384185791015625
0.0
4000.000000
-1.000000
3351
8
99.092881
49.560126
#DATA
4000.000000	97.601493 
3999.000000	97.587249 
3998.000000	97.577714 
3997.000000	97.574247 
3996.000000	97.578491 
3995.000000	97.588548 
3994.000000	97.600752 
3993.000000	97.611757 
3992.000000	97.619251 
3991.000000	97.622613 
3990.000000	97.623304 
3989.000000	97.623985 
3988.000000	97.626704 
3987.000000	97.631706 
3986.000000	97.637613 
3985.000000	97.642466 
3984.000000	97.644969 
3983.000000	97.645242 
3982.000000	97.644243 
3981.000000	97.642543 
3980.000000	97.640256 
3979.000000	97.637950 
3978.000000	97.636593 
3977.000000	97.636402 
3976.000000	97.636538 
3975.000000	97.636245 
3974.000000	97.635397 
3973.000000	97.633800 
3972.000000	97.631335 
3971.000000	97.629392 
3970.000000	97.630973 
3969.000000	97.637722 
3968.000000	97.647333 
3967.000000	97.655457 
3966.000000	97.659584 
3965.000000	97.659737 
3964.000000	97.656023 
3963.000000	97.647518 
3962.000000	97.634444 
3961.000000	97.620604 
3960.000000	97.612285 
3959.000000	97.613841 
3958.000000	97.624474 
3957.000000	97.639183 
3956.000000	97.652839 
3955.000000	97.664069 
3954.000000	97.674571 
3953.000000	97.685095 
3952.000000	97.692995 
3951.000000	97.694722 
3950.000000	97.690745 
3949.000000	97.685948 
3948.000000	97.685025 
3947.000000	97.688264 
3946.000000	97.692100 
3945.000000	97.692933 
3944.000000	97.690281 
3943.000000	97.686850 
3942.000000	97.684810 
3941.000000	97.682933 
3940.000000	97.678874 
3939.000000	97.673241 
3938.000000	97.669677 
3937.000000	97.670247 
3936.000000	97.671709 
3935.000000	97.668327 
3934.000000	97.657760 
3933.000000	97.643934 
3932.000000	97.633821 
3931.000000	97.632159 
3930.000000	97.638565 
3929.000000	97.647489 
3928.000000	97.651777 
3927.000000	97.647956 
3926.000000	97.638450 
3925.000000	97.629159 
3924.000000	97.623821 
3923.000000	97.621670 
3922.000000	97.621213 
3921.000000	97.623090 
3920.000000	97.628693 
3919.000000	97.636895 
3918.000000	97.643798 
3917.000000	97.646350 
3916.000000	97.645191 
3915.000000	97.644110 
3914.000000	97.646990 
3913.000000	97.655240 
3912.000000	97.667110 
3911.000000	97.678548 
3910.000000	97.685935 
3909.000000	97.687790 
3908.000000	97.683499 
3907.000000	97.673163 
3906.000000	97.658773 
3905.000000	97.646019 
3904.000000	97.641598 
3903.000000	97.646512 
3902.000000	97.655352 
3901.000000	97.662511 
3900.000000	97.666403 
3899.000000	97.669307 
3898.000000	97.673266 
3897.000000	97.677795 
3896.000000	97.680877 
3895.000000	97.679472 
3894.000000	97.670855 
3893.000000	97.656368 
3892.000000	97.643695 
3891.000000	97.642214 
3890.000000	97.653664 
3889.000000	97.671811 
3888.000000	97.687485 
3887.000000	97.693851 
3886.000000	97.690493 
3885.000000	97.683623 
3884.000000	97.680411 
3883.000000	97.684030 
3882.000000	97.692522 
3881.000000	97.700401 
3880.000000	97.702280 
3879.000000	97.698236 
3878.000000	97.692301 
3877.000000	97.688090 
3876.000000	97.687317 
3875.000000	97.691111 
3874.000000	97.699487 
3873.000000	97.709801 
3872.000000	97.718012 
3871.000000	97.723746 
3870.000000	97.730692 
3869.000000	97.738577 
3868.000000	97.742715 
3867.000000	97.741115 
3866.000000	97.735591 
3865.000000	97.729356 
3864.000000	97.724956 
3863.000000	97.723634 
3862.000000	97.726855 
3861.000000	97.734033 
3860.000000	97.741125 
3859.000000	97.744784 
3858.000000	97.746130 
3857.000000	97.748389 
3856.000000	97.751551 
3855.000000	97.751652 
3854.000000	97.752115 
3853.000000	97.756618 
3852.000000	97.758400 
3851.000000	97.754452 
3850.000000	97.752491 
3849.000000	97.757357 
3848.000000	97.766801 
3847.000000	97.774370 
3846.000000	97.775940 
3845.000000	97.773245 
3844.000000	97.770694 
3843.000000	97.770519 
3842.000000	97.772375 
3841.000000	97.773513 
3840.000000	97.770622 
3839.000000	97.764167 
3838.000000	97.759270 
3837.000000	97.760592 
3836.000000	97.766304 
3835.000000	97.769826 
3834.000000	97.766686 
3833.000000	97.757667 
3832.000000	97.747762 
3831.000000	97.742209 
3830.000000	97.742579 
3829.000000	97.747870 
3828.000000	97.756613 
3827.000000	97.766133 
3826.000000	97.772833 
3825.000000	97.774178 
3824.000000	97.770058 
3823.000000	97.762949 
3822.000000	97.758643 
3821.000000	97.760973 
3820.000000	97.765009 
3819.000000	97.764624 
3818.000000	97.761246 
3817.000000	97.760428 
3816.000000	97.763921 
3815.000000	97.767182 
3814.000000	97.766785 
3813.000000	97.765368 
3812.000000	97.767172 
3811.000000	97.772253 
3810.000000	97.777028 
3809.000000	97.778791 
3808.000000	97.779909 
3807.000000	97.785354 
3806.000000	97.796721 
3805.000000	97.810868 
3804.000000	97.823208 
3803.000000	97.828336 
3802.000000	97.823396 
3801.000000	97.811745 
3800.000000	97.800064 
3799.000000	97.795185 
3798.000000	97.800079 
3797.000000	97.809209 
3796.000000	97.812245 
3795.000000	97.804668 
3794.000000	97.792603 
3793.000000	97.785228 
3792.000000	97.785166 
3791.000000	97.787039 
3790.000000	97.784509 
3789.000000	97.777218 
3788.000000	97.770299 
3787.000000	97.769264 
3786.000000	97.775908 
3785.000000	97.787724 
3784.000000	97.800222 
3783.000000	97.809933 
3782.000000	97.815949 
3781.000000	97.819354 
3780.000000	97.821271 
3779.000000	97.820158 
3778.000000	97.813069 
3777.000000	97.799798 
3776.000000	97.784066 
3775.000000	97.770414 
3774.000000	97.761526 
3773.000000	97.758247 
3772.000000	97.760540 
3771.000000	97.767670 
3770.000000	97.777716 
3769.000000	97.787540 
3768.000000	97.794927 
3767.000000	97.801006 
3766.000000	97.806818 
3765.000000	97.809973 
3764.000000	97.807630 
3763.000000	97.801754 
3762.000000	97.799195 
3761.000000	97.805682 
3760.000000	97.820143 
3759.000000	97.834213 
3758.000000	97.840518 
3757.000000	97.840298 
3756.000000	97.840704 
3755.000000	97.846905 
3754.000000	97.857519 
3753.000000	97.866408 
3752.000000	97.870130 
3751.000000	97.873606 
3750.000000	97.882834 
3749.000000	97.896888 
3748.000000	97.910532 
3747.000000	97.919282 
3746.000000	97.920103 
3745.000000	97.914791 
3744.000000	97.905114 
3743.000000	97.889758 
3742.000000	97.872098 
3741.000000	97.859659 
3740.000000	97.855842 
3739.000000	97.857209 
3738.000000	97.856155 
3737.000000	97.849647 
3736.000000	97.844109 
3735.000000	97.850011 
3734.000000	97.871864 
3733.000000	97.902643 
3732.000000	97.927533 
3731.000000	97.934529 
3730.000000	97.923686 
3729.000000	97.906618 
3728.000000	97.896361 
3727.000000	97.898624 
3726.000000	97.909789 
3725.000000	97.921403 
3724.000000	97.926144 
3723.000000	97.920830 
3722.000000	97.907549 
3721.000000	97.891374 
3720.000000	97.878283 
3719.000000	97.872427 
3718.000000	97.873421 
3717.000000	97.878619 
3716.000000	97.886164 
3715.000000	97.895604 
3714.000000	97.906485 
3713.000000	97.916243 
3712.000000	97.922608 
3711.000000	97.923139 
3710.000000	97.915932 
3709.000000	97.902375 
3708.000000	97.886335 
3707.000000	97.873504 
3706.000000	97.867910 
3705.000000	97.869663 
3704.000000	97.873399 
3703.000000	97.871078 
3702.000000	97.859657 
3701.000000	97.845944 
3700.000000	97.841874 
3699.000000	97.855061 
3698.000000	97.881239 
3697.000000	97.906748 
3696.000000	97.919982 
3695.000000	97.920267 
3694.000000	97.916943 
3693.000000	97.919594 
3692.000000	97.931214 
3691.000000	97.947188 
3690.000000	97.961103 
3689.000000	97.967964 
3688.000000	97.964063 
3687.000000	97.951395 
3686.000000	97.937949 
3685.000000	97.930441 
3684.000000	97.929460 
3683.000000	97.932583 
3682.000000	97.939069 
3681.000000	97.951083 
3680.000000	97.968145 
3679.000000	97.983438 
3678.000000	97.985812 
3677.000000	97.967145 
3676.000000	97.934151 
3675.000000	97.901832 
3674.000000	97.877393 
3673.000000	97.862362 
3672.000000	97.859888 
3671.000000	97.870810 
3670.000000	97.890857 
3669.000000	97.910180 
3668.000000	97.921767 
3667.000000	97.927828 
3666.000000	97.933056 
3665.000000	97.937923 
3664.000000	97.940034 
3663.000000	97.939098 
3662.000000	97.939293 
3661.000000	97.945513 
3660.000000	97.956395 
3659.000000	97.963722 
3658.000000	97.959790 
3657.000000	97.947038 
3656.000000	97.936619 
3655.000000	97.935865 
3654.000000	97.943814 
3653.000000	97.956461 
3652.000000	97.970478 
3651.000000	97.983528 
3650.000000	97.996331 
3649.000000	98.010441 
3648.000000	98.022872 
3647.000000	98.028139 
3646.000000	98.024115 
3645.000000	98.013720 
3644.000000	98.003912 
3643.000000	98.001750 
3642.000000	98.009065 
3641.000000	98.021817 
3640.000000	98.033735 
3639.000000	98.041260 
3638.000000	98.043937 
3637.000000	98.042762 
3636.000000	98.039672 
3635.000000	98.037211 
3634.000000	98.037553 
3633.000000	98.041598 
3632.000000	98.049587 
3631.000000	98.062051 
3630.000000	98.079315 
3629.000000	98.099402 
3628.000000	98.115536 
3627.000000	98.122879 
3626.000000	98.124608 
3625.000000	98.124751 
3624.000000	98.121865 
3623.000000	98.112163 
3622.000000	98.096182 
3621.000000	98.081944 
3620.000000	98.081431 
3619.000000	98.099365 
3618.000000	98.125785 
3617.000000	98.146067 
3616.000000	98.153082 
3615.000000	98.147387 
3614.000000	98.133992 
3613.000000	98.119980 
3612.000000	98.112843 
3611.000000	98.118669 
3610.000000	98.138696 
3609.000000	98.166393 
3608.000000	98.190568 
3607.000000	98.204818 
3606.000000	98.212813 
3605.000000	98.223471 
3604.000000	98.241563 
3603.000000	98.263669 
3602.000000	98.281172 
3601.000000	98.287818 
3600.000000	98.286074 
3599.000000	98.284253 
3598.000000	98.287875 
3597.000000	98.296004 
3596.000000	98.304318 
3595.000000	98.309188 
3594.000000	98.310024 
3593.000000	98.307051 
3592.000000	98.300236 
3591.000000	98.290508 
3590.000000	98.280742 
3589.000000	98.275580 
3588.000000	98.279720 
3587.000000	98.293811 
3586.000000	98.312266 
3585.000000	98.328322 
3584.000000	98.337971 
3583.000000	98.340941 
3582.000000	98.338961 
3581.000000	98.335586 
3580.000000	98.335129 
3579.000000	98.339193 
3578.000000	98.344653 
3577.000000	98.345900 
3576.000000	98.341097 
3575.000000	98.333165 
3574.000000	98.326285 
3573.000000	98.322203 
3572.000000	98.321759 
3571.000000	98.327538 
3570.000000	98.342259 
3569.000000	98.363655 
3568.000000	98.384281 
3567.000000	98.399113 
3566.000000	98.410671 
3565.000000	98.423804 
3564.000000	98.439061 
3563.000000	98.453151 
3562.000000	98.463587 
3561.000000	98.470379 
3560.000000	98.473805 
3559.000000	98.473396 
3558.000000	98.470133 
3557.000000	98.467885 
3556.000000	98.471159 
3555.000000	98.481776 
3554.000000	98.498202 
3553.000000	98.518244 
3552.000000	98.540630 
3551.000000	98.564439 
3550.000000	98.587744 
3549.000000	98.606733 
3548.000000	98.615985 
3547.000000	98.612011 
3546.000000	98.597990 
3545.000000	98.583966 
3544.000000	98.579241 
3543.000000	98.584582 
3542.000000	98.592812 
3541.000000	98.596703 
3540.000000	98.596010 
3539.000000	98.597938 
3538.000000	98.610573 
3537.000000	98.635364 
3536.000000	98.664496 
3535.000000	98.686684 
3534.000000	98.695849 
3533.000000	98.694692 
3532.000000	98.690818 
3531.000000	98.690326 
3530.000000	98.694377 
3529.000000	98.699714 
3528.000000	98.701799 
3527.000000	98.699448 
3526.000000	98.697937 
3525.000000	98.705775 
3524.000000	98.726295 
3523.000000	98.753010 
3522.000000	98.775873 
3521.000000	98.791247 
3520.000000	98.802504 
3519.000000	98.812043 
3518.000000	98.817195 
3517.000000	98.816043 
3516.000000	98.813350 
3515.000000	98.816676 
3514.000000	98.827912 
3513.000000	98.841613 
3512.000000	98.851485 
3511.000000	98.855802 
3510.000000	98.856368 
3509.000000	98.854876 
3508.000000	98.852152 
3507.000000	98.849505 
3506.000000	98.848470 
3505.000000	98.849513 
3504.000000	98.851820 
3503.000000	98.854840 
3502.000000	98.859129 
3501.000000	98.865021 
3500.000000	98.871038 
3499.000000	98.874828 
3498.000000	98.876368 
3497.000000	98.879049 
3496.000000	98.885800 
3495.000000	98.894165 
3494.000000	98.897635 
3493.000000	98.893006 
3492.000000	98.884549 
3491.000000	98.879753 
3490.000000	98.882420 
3489.000000	98.891103 
3488.000000	98.902435 
3487.000000	98.912960 
3486.000000	98.918646 
3485.000000	98.916815 
3484.000000	98.909913 
3483.000000	98.904683 
3482.000000	98.905380 
3481.000000	98.909238 
3480.000000	98.910403 
3479.000000	98.906555 
3478.000000	98.899523 
3477.000000	98.890988 
3476.000000	98.881188 
3475.000000	98.872053 
3474.000000	98.868657 
3473.000000	98.875291 
3472.000000	98.890767 
3471.000000	98.908989 
3470.000000	98.924498 
3469.000000	98.936598 
3468.000000	98.948016 
3467.000000	98.960635 
3466.000000	98.973435 
3465.000000	98.984423 
3464.000000	98.993107 
3463.000000	99.000585 
3462.000000	99.008263 
3461.000000	99.017354 
3460.000000	99.028530 
3459.000000	99.040311 
3458.000000	99.048327 
3457.000000	99.048815 
3456.000000	99.043206 
3455.000000	99.037916 
3454.000000	99.038405 
3453.000000	99.044674 
3452.000000	99.053425 
3451.000000	99.062447 
3450.000000	99.071084 
3449.000000	99.077285 
3448.000000	99.077225 
3447.000000	99.068878 
3446.000000	99.054886 
3445.000000	99.040962 
3444.000000	99.032320 
3443.000000	99.031693 
3442.000000	99.038497 
3441.000000	99.048612 
3440.000000	99.056598 
3439.000000	99.060472 
3438.000000	99.064113 
3437.000000	99.072778 
3436.000000	99.085277 
3435.000000	99.092881 
3434.000000	99.087311 
3433.000000	99.068921 
3432.000000	99.046546 
3431.000000	99.030619 
3430.000000	99.027451 
3429.000000	99.037028 
3428.000000	99.052780 
3427.000000	99.064424 
3426.000000	99.064912 
3425.000000	99.055715 
3424.000000	99.043732 
3423.000000	99.033502 
3422.000000	99.025071 
3421.000000	99.019350 
3420.000000	99.020944 
3419.000000	99.032843 
3418.000000	99.050658 
3417.000000	99.065118 
3416.000000	99.069851 
3415.000000	99.065089 
3414.000000	99.054785 
3413.000000	99.042607 
3412.000000	99.031131 
3411.000000	99.022884 
3410.000000	99.019885 
3409.000000	99.021686 
3408.000000	99.025022 
3407.000000	99.026683 
3406.000000	99.026430 
3405.000000	99.025645 
3404.000000	99.022910 
3403.000000	99.013262 
3402.000000	98.993618 
3401.000000	98.967869 
3400.000000	98.944742 
3399.000000	98.931207 
3398.000000	98.928832 
3397.000000	98.934250 
3396.000000	98.940294 
3395.000000	98.938205 
3394.000000	98.923688 
3393.000000	98.902519 
3392.000000	98.887368 
3391.000000	98.886828 
3390.000000	98.898625 
3389.000000	98.913853 
3388.000000	98.925479 
3387.000000	98.931935 
3386.000000	98.935176 
3385.000000	98.937421 
3384.000000	98.938667 
3383.000000	98.936336 
3382.000000	98.928275 
3381.000000	98.916304 
3380.000000	98.905043 
3379.000000	98.896700 
3378.000000	98.889371 
3377.000000	98.881442 
3376.000000	98.874993 
3375.000000	98.872905 
3374.000000	98.874850 
3373.000000	98.878426 
3372.000000	98.882496 
3371.000000	98.886945 
3370.000000	98.890559 
3369.000000	98.892029 
3368.000000	98.892429 
3367.000000	98.894188 
3366.000000	98.897535 
3365.000000	98.899577 
3364.000000	98.896837 
3363.000000	98.887845 
3362.000000	98.874386 
3361.000000	98.861482 
3360.000000	98.854455 
3359.000000	98.853558 
3358.000000	98.852194 
3357.000000	98.842882 
3356.000000	98.825041 
3355.000000	98.805264 
3354.000000	98.790118 
3353.000000	98.780498 
3352.000000	98.772943 
3351.000000	98.764538 
3350.000000	98.755910 
3349.000000	98.750129 
3348.000000	98.748762 
3347.000000	98.748964 
3346.000000	98.745356 
3345.000000	98.735703 
3344.000000	98.723849 
3343.000000	98.715853 
3342.000000	98.713403 
3341.000000	98.711246 
3340.000000	98.700631 
3339.000000	98.676288 
3338.000000	98.642563 
3337.000000	98.612719 
3336.000000	98.598482 
3335.000000	98.598004 
3334.000000	98.596538 
3333.000000	98.580648 
3332.000000	98.549624 
3331.000000	98.512315 
3330.000000	98.477394 
3329.000000	98.450034 
3328.000000	98.433032 
3327.000000	98.424340 
3326.000000	98.414929 
3325.000000	98.395990 
3324.000000	98.369075 
3323.000000	98.343958 
3322.000000	98.325384 
3321.000000	98.306895 
3320.000000	98.279384 
3319.000000	98.241166 
3318.000000	98.196902 
3317.000000	98.150787 
3316.000000	98.105262 
3315.000000	98.064236 
3314.000000	98.032411 
3313.000000	98.010055 
3312.000000	97.990729 
3311.000000	97.965916 
3310.000000	97.931915 
3309.000000	97.891812 
3308.000000	97.850679 
3307.000000	97.809563 
3306.000000	97.765592 
3305.000000	97.718353 
3304.000000	97.673816 
3303.000000	97.639643 
3302.000000	97.617586 
3301.000000	97.602873 
3300.000000	97.590152 
3299.000000	97.576807 
3298.000000	97.560663 
3297.000000	97.538680 
3296.000000	97.510348 
3295.000000	97.479906 
3294.000000	97.452338 
3293.000000	97.427714 
3292.000000	97.401183 
3291.000000	97.368466 
3290.000000	97.330453 
3289.000000	97.292756 
3288.000000	97.261684 
3287.000000	97.239965 
3286.000000	97.224646 
3285.000000	97.208203 
3284.000000	97.182600 
3283.000000	97.144500 
3282.000000	97.098586 
3281.000000	97.055574 
3280.000000	97.024400 
3279.000000	97.004521 
3278.000000	96.986718 
3277.000000	96.963082 
3276.000000	96.935752 
3275.000000	96.914173 
3274.000000	96.903668 
3273.000000	96.897903 
3272.000000	96.882745 
3271.000000	96.847574 
3270.000000	96.794639 
3269.000000	96.739157 
3268.000000	96.698906 
3267.000000	96.680503 
3266.000000	96.674624 
3265.000000	96.665365 
3264.000000	96.644292 
3263.000000	96.614943 
3262.000000	96.585741 
3261.000000	96.561762 
3260.000000	96.542745 
3259.000000	96.524967 
3258.000000	96.502903 
3257.000000	96.471668 
3256.000000	96.431043 
3255.000000	96.386936 
3254.000000	96.346632 
3253.000000	96.311563 
3252.000000	96.275280 
3251.000000	96.229245 
3250.000000	96.171241 
3249.000000	96.108240 
3248.000000	96.050452 
3247.000000	96.001807 
3246.000000	95.956519 
3245.000000	95.905773 
3244.000000	95.847684 
3243.000000	95.789658 
3242.000000	95.740599 
3241.000000	95.701182 
3240.000000	95.661949 
3239.000000	95.611097 
3238.000000	95.544722 
3237.000000	95.469849 
3236.000000	95.397536 
3235.000000	95.333622 
3234.000000	95.276240 
3233.000000	95.220107 
3232.000000	95.160302 
3231.000000	95.092740 
3230.000000	95.015791 
3229.000000	94.933504 
3228.000000	94.853725 
3227.000000	94.779918 
3226.000000	94.707189 
3225.000000	94.629306 
3224.000000	94.546996 
3223.000000	94.465002 
3222.000000	94.382808 
3221.000000	94.293841 
3220.000000	94.194430 
3219.000000	94.088518 
3218.000000	93.981347 
3217.000000	93.872526 
3216.000000	93.758474 
3215.000000	93.639103 
3214.000000	93.518323 
3213.000000	93.398590 
3212.000000	93.278154 
3211.000000	93.154441 
3210.000000	93.028005 
3209.000000	92.901120 
3208.000000	92.772507 
3207.000000	92.635214 
3206.000000	92.481730 
3205.000000	92.311905 
3204.000000	92.134865 
3203.000000	91.962007 
3202.000000	91.798025 
3201.000000	91.638523 
3200.000000	91.474859 
3199.000000	91.300642 
3198.000000	91.115108 
3197.000000	90.922076 
3196.000000	90.725258 
3195.000000	90.523758 
3194.000000	90.312856 
3193.000000	90.089820 
3192.000000	89.857540 
3191.000000	89.621179 
3190.000000	89.382812 
3189.000000	89.141022 
3188.000000	88.894059 
3187.000000	88.640443 
3186.000000	88.377511 
3185.000000	88.103300 
3184.000000	87.821150 
3183.000000	87.539831 
3182.000000	87.266831 
3181.000000	87.002033 
3180.000000	86.738986 
3179.000000	86.472175 
3178.000000	86.202606 
3177.000000	85.936500 
3176.000000	85.679203 
3175.000000	85.431098 
3174.000000	85.189434 
3173.000000	84.952847 
3172.000000	84.722841 
3171.000000	84.501986 
3170.000000	84.293387 
3169.000000	84.102043 
3168.000000	83.933212 
3167.000000	83.786730 
3166.000000	83.654447 
3165.000000	83.525935 
3164.000000	83.396877 
3163.000000	83.271182 
3162.000000	83.155807 
3161.000000	83.054388 
3160.000000	82.964430 
3159.000000	82.879304 
3158.000000	82.794509 
3157.000000	82.713591 
3156.000000	82.646293 
3155.000000	82.598801 
3154.000000	82.567290 
3153.000000	82.543457 
3152.000000	82.524660 
3151.000000	82.514829 
3150.000000	82.516146 
3149.000000	82.524901 
3148.000000	82.537528 
3147.000000	82.557198 
3146.000000	82.591104 
3145.000000	82.642405 
3144.000000	82.707313 
3143.000000	82.779871 
3142.000000	82.857768 
3141.000000	82.943444 
3140.000000	83.040711 
3139.000000	83.150381 
3138.000000	83.268335 
3137.000000	83.387988 
3136.000000	83.505627 
3135.000000	83.623353 
3134.000000	83.745947 
3133.000000	83.874940 
3132.000000	84.006937 
3131.000000	84.138041 
3130.000000	84.268467 
3129.000000	84.401371 
3128.000000	84.537664 
3127.000000	84.673665 
3126.000000	84.804529 
3125.000000	84.928786 
3124.000000	85.048207 
3123.000000	85.164013 
3122.000000	85.275361 
3121.000000	85.382160 
3120.000000	85.487308 
3119.000000	85.594130 
3118.000000	85.702107 
3117.000000	85.807056 
3116.000000	85.906070 
3115.000000	86.000986 
3114.000000	86.096019 
3113.000000	86.192881 
3112.000000	86.289450 
3111.000000	86.383182 
3110.000000	86.474483 
3109.000000	86.565741 
3108.000000	86.657597 
3107.000000	86.747512 
3106.000000	86.832521 
3105.000000	86.911817 
3104.000000	86.985235 
3103.000000	87.050345 
3102.000000	87.103743 
3101.000000	87.145915 
3100.000000	87.182474 
3099.000000	87.218786 
3098.000000	87.254290 
3097.000000	87.283611 
3096.000000	87.302847 
3095.000000	87.313403 
3094.000000	87.319470 
3093.000000	87.323177 
3092.000000	87.323469 
3091.000000	87.319460 
3090.000000	87.313192 
3089.000000	87.307362 
3088.000000	87.300629 
3087.000000	87.287608 
3086.000000	87.265358 
3085.000000	87.238372 
3084.000000	87.214668 
3083.000000	87.197213 
3082.000000	87.180974 
3081.000000	87.157903 
3080.000000	87.122833 
3079.000000	87.075599 
3078.000000	87.021293 
3077.000000	86.969038 
3076.000000	86.926158 
3075.000000	86.890785 
3074.000000	86.852682 
3073.000000	86.803923 
3072.000000	86.747157 
3071.000000	86.691011 
3070.000000	86.639487 
3069.000000	86.588926 
3068.000000	86.533983 
3067.000000	86.473113 
3066.000000	86.408209 
3065.000000	86.341871 
3064.000000	86.275884 
3063.000000	86.210561 
3062.000000	86.145090 
3061.000000	86.079836 
3060.000000	86.018208 
3059.000000	85.964512 
3058.000000	85.919551 
3057.000000	85.879791 
3056.000000	85.841299 
3055.000000	85.803214 
3054.000000	85.766856 
3053.000000	85.733049 
3052.000000	85.701759 
3051.000000	85.673766 
3050.000000	85.651311 
3049.000000	85.636555 
3048.000000	85.629784 
3047.000000	85.629470 
3046.000000	85.633684 
3045.000000	85.640530 
3044.000000	85.647036 
3043.000000	85.648857 
3042.000000	85.642669 
3041.000000	85.628961 
3040.000000	85.611475 
3039.000000	85.594038 
3038.000000	85.578985 
3037.000000	85.568073 
3036.000000	85.562196 
3035.000000	85.558912 
3034.000000	85.552326 
3033.000000	85.537916 
3032.000000	85.517183 
3031.000000	85.496152 
3030.000000	85.479822 
3029.000000	85.469524 
3028.000000	85.464872 
3027.000000	85.465613 
3026.000000	85.470556 
3025.000000	85.475954 
3024.000000	85.476046 
3023.000000	85.465299 
3022.000000	85.440514 
3021.000000	85.401603 
3020.000000	85.350215 
3019.000000	85.286254 
3018.000000	85.204572 
3017.000000	85.094369 
3016.000000	84.940679 
3015.000000	84.725151 
3014.000000	84.426543 
3013.000000	84.027044 
3012.000000	83.528849 
3011.000000	82.974913 
3010.000000	82.455742 
3009.000000	82.085504 
3008.000000	81.953282 
3007.000000	82.078468 
3006.000000	82.403361 
3005.000000	82.827766 
3004.000000	83.258321 
3003.000000	83.639080 
3002.000000	83.951325 
3001.000000	84.197275 
3000.000000	84.386194 
2999.000000	84.529334 
2998.000000	84.638735 
2997.000000	84.724887 
2996.000000	84.794151 
2995.000000	84.848964 
2994.000000	84.890990 
2993.000000	84.923444 
2992.000000	84.949846 
2991.000000	84.971499 
2990.000000	84.987795 
2989.000000	84.998925 
2988.000000	85.006361 
2987.000000	85.009545 
2986.000000	85.003131 
2985.000000	84.978750 
2984.000000	84.929026 
2983.000000	84.849100 
2982.000000	84.734985 
2981.000000	84.582157 
2980.000000	84.386574 
2979.000000	84.147053 
2978.000000	83.867298 
2977.000000	83.556612 
2976.000000	83.229205 
2975.000000	82.902984 
2974.000000	82.599450 
2973.000000	82.344142 
2972.000000	82.163586 
2971.000000	82.076691 
2970.000000	82.084610 
2969.000000	82.167263 
2968.000000	82.290801 
2967.000000	82.422020 
2966.000000	82.540335 
2965.000000	82.640216 
2964.000000	82.724704 
2963.000000	82.796435 
2962.000000	82.853398 
2961.000000	82.891916 
2960.000000	82.912550 
2959.000000	82.922128 
2958.000000	82.929216 
2957.000000	82.937417 
2956.000000	82.943602 
2955.000000	82.942782 
2954.000000	82.934089 
2953.000000	82.921344 
2952.000000	82.908626 
2951.000000	82.896855 
2950.000000	82.884752 
2949.000000	82.871330 
2948.000000	82.856113 
2947.000000	82.837911 
2946.000000	82.815102 
2945.000000	82.787457 
2944.000000	82.757034 
2943.000000	82.727028 
2942.000000	82.699668 
2941.000000	82.674717 
2940.000000	82.649651 
2939.000000	82.621672 
2938.000000	82.589645 
2937.000000	82.553373 
2936.000000	82.511254 
2935.000000	82.460588 
2934.000000	82.401014 
2933.000000	82.335588 
2932.000000	82.266702 
2931.000000	82.192528 
2930.000000	82.110024 
2929.000000	82.020738 
2928.000000	81.930999 
2927.000000	81.846025 
2926.000000	81.765808 
2925.000000	81.686990 
2924.000000	81.606976 
2923.000000	81.525658 
2922.000000	81.444469 
2921.000000	81.364350 
2920.000000	81.284046 
2919.000000	81.200958 
2918.000000	81.115049 
2917.000000	81.031252 
2916.000000	80.955778 
2915.000000	80.889666 
2914.000000	80.827583 
2913.000000	80.763430 
2912.000000	80.695413 
2911.000000	80.624930 
2910.000000	80.552201 
2909.000000	80.475097 
2908.000000	80.392686 
2907.000000	80.309081 
2906.000000	80.232402 
2905.000000	80.168387 
2904.000000	80.114481 
2903.000000	80.061873 
2902.000000	80.003613 
2901.000000	79.941323 
2900.000000	79.882055 
2899.000000	79.830626 
2898.000000	79.786829 
2897.000000	79.747761 
2896.000000	79.710165 
2895.000000	79.671013 
2894.000000	79.628993 
2893.000000	79.585958 
2892.000000	79.544672 
2891.000000	79.505225 
2890.000000	79.466510 
2889.000000	79.431852 
2888.000000	79.409855 
2887.000000	79.407132 
2886.000000	79.421471 
2885.000000	79.443568 
2884.000000	79.464627 
2883.000000	79.481320 
2882.000000	79.494756 
2881.000000	79.506572 
2880.000000	79.516091 
2879.000000	79.520582 
2878.000000	79.518360 
2877.000000	79.511479 
2876.000000	79.504362 
2875.000000	79.499673 
2874.000000	79.496745 
2873.000000	79.494140 
2872.000000	79.491924 
2871.000000	79.490477 
2870.000000	79.488619 
2869.000000	79.484500 
2868.000000	79.477959 
2867.000000	79.471306 
2866.000000	79.468415 
2865.000000	79.473335 
2864.000000	79.488076 
2863.000000	79.510119 
2862.000000	79.532743 
2861.000000	79.549518 
2860.000000	79.559290 
2859.000000	79.566772 
2858.000000	79.578668 
2857.000000	79.598946 
2856.000000	79.626367 
2855.000000	79.655537 
2854.000000	79.680776 
2853.000000	79.699715 
2852.000000	79.712937 
2851.000000	79.720488 
2850.000000	79.720198 
2849.000000	79.710270 
2848.000000	79.692515 
2847.000000	79.671811 
2846.000000	79.652459 
2845.000000	79.635236 
2844.000000	79.617173 
2843.000000	79.593823 
2842.000000	79.562978 
2841.000000	79.527443 
2840.000000	79.493760 
2839.000000	79.466979 
2838.000000	79.446392 
2837.000000	79.426429 
2836.000000	79.401161 
2835.000000	79.367457 
2834.000000	79.324816 
2833.000000	79.273968 
2832.000000	79.216616 
2831.000000	79.156095 
2830.000000	79.097263 
2829.000000	79.044616 
2828.000000	78.999653 
2827.000000	78.960268 
2826.000000	78.923783 
2825.000000	78.890939 
2824.000000	78.865856 
2823.000000	78.851259 
2822.000000	78.844714 
2821.000000	78.841370 
2820.000000	78.840599 
2819.000000	78.848063 
2818.000000	78.869723 
2817.000000	78.904512 
2816.000000	78.944839 
2815.000000	78.984585 
2814.000000	79.024804 
2813.000000	79.070378 
2812.000000	79.122552 
2811.000000	79.176958 
2810.000000	79.228435 
2809.000000	79.275123 
2808.000000	79.317014 
2807.000000	79.352944 
2806.000000	79.381549 
2805.000000	79.404582 
2804.000000	79.427021 
2803.000000	79.452705 
2802.000000	79.479970 
2801.000000	79.502003 
2800.000000	79.512276 
2799.000000	79.510762 
2798.000000	79.504708 
2797.000000	79.501891 
2796.000000	79.502920 
2795.000000	79.502136 
2794.000000	79.496817 
2793.000000	79.492854 
2792.000000	79.498799 
2791.000000	79.515886 
2790.000000	79.537037 
2789.000000	79.555402 
2788.000000	79.570725 
2787.000000	79.586539 
2786.000000	79.603887 
2785.000000	79.619894 
2784.000000	79.631601 
2783.000000	79.639501 
2782.000000	79.647043 
2781.000000	79.657023 
2780.000000	79.668560 
2779.000000	79.678010 
2778.000000	79.683168 
2777.000000	79.685869 
2776.000000	79.689651 
2775.000000	79.695697 
2774.000000	79.702341 
2773.000000	79.707678 
2772.000000	79.710584 
2771.000000	79.709471 
2770.000000	79.702627 
2769.000000	79.690756 
2768.000000	79.677283 
2767.000000	79.664803 
2766.000000	79.652501 
2765.000000	79.638314 
2764.000000	79.622577 
2763.000000	79.607974 
2762.000000	79.596389 
2761.000000	79.587351 
2760.000000	79.579709 
2759.000000	79.573617 
2758.000000	79.570169 
2757.000000	79.569790 
2756.000000	79.572017 
2755.000000	79.576886 
2754.000000	79.585404 
2753.000000	79.597819 
2752.000000	79.612166 
2751.000000	79.625998 
2750.000000	79.639320 
2749.000000	79.654104 
2748.000000	79.670640 
2747.000000	79.686658 
2746.000000	79.701275 
2745.000000	79.717503 
2744.000000	79.738330 
2743.000000	79.761704 
2742.000000	79.782423 
2741.000000	79.798630 
2740.000000	79.813441 
2739.000000	79.829821 
2738.000000	79.846805 
2737.000000	79.861931 
2736.000000	79.874748 
2735.000000	79.885785 
2734.000000	79.893747 
2733.000000	79.896315 
2732.000000	79.893498 
2731.000000	79.888490 
2730.000000	79.884989 
2729.000000	79.884465 
2728.000000	79.885659 
2727.000000	79.885573 
2726.000000	79.881091 
2725.000000	79.871103 
2724.000000	79.857837 
2723.000000	79.845364 
2722.000000	79.836015 
2721.000000	79.828699 
2720.000000	79.821689 
2719.000000	79.816698 
2718.000000	79.818390 
2717.000000	79.828900 
2716.000000	79.844346 
2715.000000	79.858843 
2714.000000	79.871302 
2713.000000	79.885587 
2712.000000	79.903566 
2711.000000	79.920942 
2710.000000	79.931933 
2709.000000	79.936440 
2708.000000	79.940694 
2707.000000	79.952021 
2706.000000	79.974535 
2705.000000	80.007943 
2704.000000	80.047437 
2703.000000	80.085450 
2702.000000	80.117016 
2701.000000	80.144573 
2700.000000	80.175590 
2699.000000	80.214857 
2698.000000	80.260756 
2697.000000	80.309176 
2696.000000	80.358505 
2695.000000	80.409661 
2694.000000	80.463606 
2693.000000	80.521215 
2692.000000	80.584462 
2691.000000	80.655205 
2690.000000	80.732393 
2689.000000	80.812020 
2688.000000	80.890620 
2687.000000	80.968141 
2686.000000	81.046793 
2685.000000	81.127457 
2684.000000	81.207924 
2683.000000	81.284732 
2682.000000	81.356170 
2681.000000	81.423062 
2680.000000	81.487140 
2679.000000	81.549419 
2678.000000	81.609826 
2677.000000	81.667209 
2676.000000	81.719622 
2675.000000	81.765953 
2674.000000	81.807536 
2673.000000	81.846444 
2672.000000	81.881412 
2671.000000	81.907554 
2670.000000	81.922044 
2669.000000	81.928673 
2668.000000	81.934366 
2667.000000	81.941969 
2666.000000	81.948822 
2665.000000	81.951815 
2664.000000	81.950825 
2663.000000	81.946665 
2662.000000	81.938558 
2661.000000	81.925598 
2660.000000	81.909556 
2659.000000	81.894638 
2658.000000	81.884364 
2657.000000	81.878758 
2656.000000	81.874089 
2655.000000	81.865489 
2654.000000	81.850784 
2653.000000	81.831846 
2652.000000	81.811713 
2651.000000	81.790775 
2650.000000	81.766300 
2649.000000	81.734537 
2648.000000	81.692156 
2647.000000	81.637576 
2646.000000	81.573834 
2645.000000	81.509314 
2644.000000	81.451956 
2643.000000	81.401679 
2642.000000	81.350778 
2641.000000	81.292614 
2640.000000	81.227826 
2639.000000	81.161460 
2638.000000	81.096546 
2637.000000	81.031854 
2636.000000	80.964176 
2635.000000	80.891549 
2634.000000	80.815689 
2633.000000	80.742233 
2632.000000	80.676913 
2631.000000	80.620045 
2630.000000	80.565535 
2629.000000	80.506105 
2628.000000	80.439293 
2627.000000	80.368795 
2626.000000	80.301284 
2625.000000	80.241581 
2624.000000	80.189022 
2623.000000	80.138473 
2622.000000	80.086431 
2621.000000	80.035536 
2620.000000	79.991080 
2619.000000	79.954303 
2618.000000	79.922892 
2617.000000	79.897922 
2616.000000	79.885303 
2615.000000	79.887960 
2614.000000	79.900248 
2613.000000	79.913530 
2612.000000	79.925621 
2611.000000	79.942124 
2610.000000	79.969736 
2609.000000	80.010444 
2608.000000	80.060880 
2607.000000	80.114965 
2606.000000	80.168172 
2605.000000	80.221511 
2604.000000	80.280751 
2603.000000	80.349765 
2602.000000	80.425239 
2601.000000	80.499610 
2600.000000	80.568088 
2599.000000	80.630510 
2598.000000	80.687677 
2597.000000	80.740055 
2596.000000	80.790812 
2595.000000	80.846320 
2594.000000	80.910788 
2593.000000	80.981788 
2592.000000	81.053176 
2591.000000	81.121471 
2590.000000	81.187471 
2589.000000	81.252675 
2588.000000	81.317227 
2587.000000	81.382094 
2586.000000	81.450747 
2585.000000	81.526764 
2584.000000	81.610806 
2583.000000	81.701277 
2582.000000	81.796399 
2581.000000	81.893417 
2580.000000	81.987240 
2579.000000	82.073944 
2578.000000	82.156616 
2577.000000	82.244420 
2576.000000	82.343566 
2575.000000	82.451037 
2574.000000	82.558856 
2573.000000	82.661877 
2572.000000	82.758437 
2571.000000	82.845740 
2570.000000	82.919891 
2569.000000	82.981631 
2568.000000	83.038654 
2567.000000	83.099946 
2566.000000	83.168507 
2565.000000	83.239716 
2564.000000	83.305479 
2563.000000	83.360334 
2562.000000	83.405562 
2561.000000	83.447756 
2560.000000	83.491964 
2559.000000	83.536352 
2558.000000	83.574883 
2557.000000	83.604133 
2556.000000	83.625181 
2555.000000	83.640254 
2554.000000	83.651683 
2553.000000	83.664152 
2552.000000	83.682910 
2551.000000	83.707178 
2550.000000	83.728456 
2549.000000	83.738275 
2548.000000	83.736198 
2547.000000	83.728502 
2546.000000	83.720991 
2545.000000	83.715314 
2544.000000	83.710892 
2543.000000	83.708043 
2542.000000	83.709146 
2541.000000	83.717236 
2540.000000	83.732348 
2539.000000	83.748775 
2538.000000	83.757838 
2537.000000	83.754946 
2536.000000	83.743094 
2535.000000	83.728681 
2534.000000	83.715520 
2533.000000	83.704219 
2532.000000	83.695724 
2531.000000	83.692944 
2530.000000	83.698756 
2529.000000	83.713653 
2528.000000	83.735712 
2527.000000	83.762335 
2526.000000	83.791683 
2525.000000	83.822399 
2524.000000	83.852411 
2523.000000	83.879410 
2522.000000	83.903758 
2521.000000	83.930308 
2520.000000	83.965550 
2519.000000	84.012410 
2518.000000	84.068724 
2517.000000	84.131043 
2516.000000	84.199143 
2515.000000	84.276166 
2514.000000	84.364249 
2513.000000	84.460169 
2512.000000	84.556129 
2511.000000	84.646162 
2510.000000	84.731502 
2509.000000	84.817705 
2508.000000	84.906331 
2507.000000	84.992403 
2506.000000	85.071803 
2505.000000	85.148660 
2504.000000	85.232426 
2503.000000	85.328534 
2502.000000	85.433860 
2501.000000	85.539864 
2500.000000	85.638094 
2499.000000	85.724653 
2498.000000	85.802699 
2497.000000	85.879934 
2496.000000	85.960982 
2495.000000	86.043134 
2494.000000	86.122018 
2493.000000	86.199392 
2492.000000	86.281240 
2491.000000	86.369199 
2490.000000	86.458291 
2489.000000	86.542986 
2488.000000	86.621293 
2487.000000	86.692840 
2486.000000	86.757619 
2485.000000	86.818135 
2484.000000	86.879374 
2483.000000	86.945219 
2482.000000	87.016736 
2481.000000	87.092872 
2480.000000	87.169053 
2479.000000	87.236418 
2478.000000	87.288587 
2477.000000	87.330327 
2476.000000	87.373596 
2475.000000	87.422804 
2474.000000	87.469550 
2473.000000	87.505282 
2472.000000	87.534316 
2471.000000	87.569667 
2470.000000	87.618956 
2469.000000	87.678258 
2468.000000	87.737399 
2467.000000	87.787172 
2466.000000	87.822803 
2465.000000	87.844770 
2464.000000	87.857397 
2463.000000	87.865527 
2462.000000	87.872372 
2461.000000	87.879948 
2460.000000	87.889165 
2459.000000	87.898873 
2458.000000	87.907330 
2457.000000	87.915605 
2456.000000	87.927145 
2455.000000	87.942985 
2454.000000	87.959947 
2453.000000	87.974889 
2452.000000	87.988721 
2451.000000	88.005501 
2450.000000	88.029566 
2449.000000	88.063220 
2448.000000	88.103697 
2447.000000	88.141991 
2446.000000	88.168787 
2445.000000	88.183260 
2444.000000	88.193162 
2443.000000	88.205772 
2442.000000	88.222493 
2441.000000	88.242356 
2440.000000	88.264860 
2439.000000	88.286914 
2438.000000	88.302708 
2437.000000	88.311142 
2436.000000	88.319695 
2435.000000	88.336366 
2434.000000	88.360020 
2433.000000	88.382324 
2432.000000	88.397247 
2431.000000	88.405196 
2430.000000	88.409484 
2429.000000	88.412566 
2428.000000	88.415606 
2427.000000	88.419205 
2426.000000	88.424115 
2425.000000	88.431854 
2424.000000	88.444029 
2423.000000	88.461196 
2422.000000	88.483774 
2421.000000	88.513268 
2420.000000	88.549877 
2419.000000	88.589683 
2418.000000	88.628528 
2417.000000	88.669438 
2416.000000	88.721752 
2415.000000	88.790546 
2414.000000	88.869944 
2413.000000	88.948691 
2412.000000	89.020075 
2411.000000	89.086072 
2410.000000	89.155890 
2409.000000	89.241451 
2408.000000	89.348557 
2407.000000	89.468354 
2406.000000	89.581099 
2405.000000	89.673197 
2404.000000	89.749576 
2403.000000	89.826871 
2402.000000	89.916244 
2401.000000	90.015107 
2400.000000	90.112995 
2399.000000	90.202097 
2398.000000	90.282947 
2397.000000	90.362195 
2396.000000	90.444858 
2395.000000	90.528398 
2394.000000	90.605902 
2393.000000	90.675025 
2392.000000	90.740522 
2391.000000	90.807420 
2390.000000	90.875885 
2389.000000	90.945020 
2388.000000	91.017719 
2387.000000	91.097777 
2386.000000	91.184129 
2385.000000	91.271262 
2384.000000	91.354415 
2383.000000	91.432043 
2382.000000	91.504761 
2381.000000	91.575001 
2380.000000	91.647367 
2379.000000	91.726151 
2378.000000	91.810525 
2377.000000	91.893081 
2376.000000	91.963528 
2375.000000	92.016320 
2374.000000	92.058666 
2373.000000	92.108364 
2372.000000	92.176858 
2371.000000	92.252195 
2370.000000	92.307041 
2369.000000	92.329272 
2368.000000	92.335952 
2367.000000	92.349046 
2366.000000	92.368589 
2365.000000	92.384199 
2364.000000	92.401925 
2363.000000	92.436110 
2362.000000	92.491098 
2361.000000	92.562409 
2360.000000	92.632910 
2359.000000	92.679293 
2358.000000	92.686897 
2357.000000	92.668628 
2356.000000	92.661270 
2355.000000	92.677926 
2354.000000	92.700921 
2353.000000	92.711365 
2352.000000	92.720453 
2351.000000	92.753944 
2350.000000	92.806867 
2349.000000	92.860601 
2348.000000	92.904614 
2347.000000	92.946207 
2346.000000	92.987405 
2345.000000	93.009264 
2344.000000	93.011095 
2343.000000	93.001722 
2342.000000	92.990039 
2341.000000	92.978152 
2340.000000	92.971576 
2339.000000	92.981640 
2338.000000	93.003045 
2337.000000	93.019724 
2336.000000	93.022525 
2335.000000	93.020222 
2334.000000	93.028241 
2333.000000	93.055077 
2332.000000	93.093868 
2331.000000	93.129056 
2330.000000	93.136456 
2329.000000	93.116635 
2328.000000	93.080580 
2327.000000	93.038026 
2326.000000	92.992016 
2325.000000	92.947797 
2324.000000	92.929924 
2323.000000	92.944769 
2322.000000	92.971629 
2321.000000	92.975425 
2320.000000	92.949719 
2319.000000	92.920922 
2318.000000	92.913436 
2317.000000	92.934291 
2316.000000	92.973119 
2315.000000	93.020602 
2314.000000	93.065005 
2313.000000	93.095694 
2312.000000	93.101984 
2311.000000	93.082546 
2310.000000	93.047192 
2309.000000	93.016210 
2308.000000	93.009596 
2307.000000	93.032068 
2306.000000	93.068757 
2305.000000	93.095458 
2304.000000	93.098449 
2303.000000	93.082431 
2302.000000	93.064746 
2301.000000	93.061002 
2300.000000	93.071569 
2299.000000	93.082927 
2298.000000	93.081309 
2297.000000	93.067423 
2296.000000	93.052064 
2295.000000	93.041545 
2294.000000	93.031768 
2293.000000	93.015713 
2292.000000	92.991025 
2291.000000	92.956754 
2290.000000	92.913133 
2289.000000	92.864849 
2288.000000	92.821888 
2287.000000	92.789956 
2286.000000	92.766309 
2285.000000	92.744849 
2284.000000	92.722644 
2283.000000	92.698800 
2282.000000	92.673535 
2281.000000	92.649108 
2280.000000	92.625943 
2279.000000	92.596546 
2278.000000	92.551403 
2277.000000	92.493939 
2276.000000	92.440403 
2275.000000	92.402148 
2274.000000	92.375155 
2273.000000	92.351932 
2272.000000	92.333876 
2271.000000	92.326477 
2270.000000	92.329893 
2269.000000	92.340177 
2268.000000	92.353907 
2267.000000	92.366564 
2266.000000	92.373378 
2265.000000	92.377715 
2264.000000	92.391791 
2263.000000	92.423071 
2262.000000	92.463602 
2261.000000	92.496115 
2260.000000	92.509235 
2259.000000	92.507277 
2258.000000	92.512824 
2257.000000	92.555818 
2256.000000	92.647157 
2255.000000	92.760414 
2254.000000	92.850875 
2253.000000	92.897254 
2252.000000	92.914694 
2251.000000	92.928032 
2250.000000	92.946437 
2249.000000	92.967490 
2248.000000	92.988371 
2247.000000	93.005958 
2246.000000	93.018325 
2245.000000	93.030785 
2244.000000	93.049040 
2243.000000	93.063813 
2242.000000	93.059219 
2241.000000	93.040796 
2240.000000	93.036927 
2239.000000	93.063856 
2238.000000	93.105264 
2237.000000	93.133219 
2236.000000	93.132387 
2235.000000	93.097554 
2234.000000	93.030650 
2233.000000	92.954325 
2232.000000	92.907031 
2231.000000	92.905907 
2230.000000	92.928269 
2229.000000	92.943367 
2228.000000	92.947464 
2227.000000	92.953072 
2226.000000	92.959658 
2225.000000	92.954546 
2224.000000	92.933550 
2223.000000	92.905553 
2222.000000	92.882716 
2221.000000	92.873317 
2220.000000	92.873501 
2219.000000	92.862827 
2218.000000	92.825515 
2217.000000	92.780403 
2216.000000	92.766481 
2215.000000	92.790801 
2214.000000	92.817923 
2213.000000	92.823218 
2212.000000	92.826468 
2211.000000	92.852979 
2210.000000	92.890713 
2209.000000	92.912824 
2208.000000	92.918933 
2207.000000	92.924622 
2206.000000	92.928931 
2205.000000	92.922654 
2204.000000	92.914314 
2203.000000	92.919530 
2202.000000	92.936237 
2201.000000	92.954379 
2200.000000	92.976010 
2199.000000	93.000881 
2198.000000	93.007459 
2197.000000	92.977796 
2196.000000	92.930906 
2195.000000	92.904216 
2194.000000	92.911068 
2193.000000	92.939805 
2192.000000	92.981643 
2191.000000	93.032270 
2190.000000	93.076597 
2189.000000	93.101340 
2188.000000	93.116606 
2187.000000	93.140120 
2186.000000	93.169628 
2185.000000	93.196127 
2184.000000	93.230475 
2183.000000	93.284378 
2182.000000	93.335511 
2181.000000	93.348866 
2180.000000	93.328981 
2179.000000	93.315178 
2178.000000	93.325998 
2177.000000	93.339147 
2176.000000	93.327772 
2175.000000	93.291197 
2174.000000	93.246731 
2173.000000	93.212335 
2172.000000	93.199316 
2171.000000	93.204732 
2170.000000	93.210080 
2169.000000	93.198621 
2168.000000	93.169339 
2167.000000	93.124590 
2166.000000	93.058496 
2165.000000	92.974990 
2164.000000	92.902024 
2163.000000	92.867435 
2162.000000	92.877385 
2161.000000	92.937965 
2160.000000	93.070197 
2159.000000	93.263206 
2158.000000	93.435903 
2157.000000	93.500971 
2156.000000	93.452195 
2155.000000	93.350474 
2154.000000	93.250877 
2153.000000	93.171642 
2152.000000	93.109569 
2151.000000	93.055772 
2150.000000	93.003780 
2149.000000	92.962252 
2148.000000	92.952516 
2147.000000	92.978852 
2146.000000	93.012612 
2145.000000	93.020891 
2144.000000	92.998559 
2143.000000	92.957262 
2142.000000	92.900232 
2141.000000	92.829526 
2140.000000	92.764149 
2139.000000	92.726268 
2138.000000	92.714597 
2137.000000	92.709914 
2136.000000	92.703591 
2135.000000	92.705323 
2134.000000	92.724369 
2133.000000	92.754813 
2132.000000	92.777279 
2131.000000	92.768341 
2130.000000	92.715417 
2129.000000	92.631774 
2128.000000	92.551089 
2127.000000	92.500210 
2126.000000	92.482918 
2125.000000	92.490573 
2124.000000	92.513242 
2123.000000	92.533927 
2122.000000	92.530367 
2121.000000	92.500101 
2120.000000	92.473833 
2119.000000	92.486068 
2118.000000	92.536257 
2117.000000	92.591350 
2116.000000	92.622764 
2115.000000	92.629410 
2114.000000	92.628620 
2113.000000	92.638131 
2112.000000	92.666640 
2111.000000	92.711433 
2110.000000	92.762615 
2109.000000	92.812698 
2108.000000	92.860214 
2107.000000	92.903993 
2106.000000	92.942603 
2105.000000	92.981882 
2104.000000	93.031117 
2103.000000	93.087304 
2102.000000	93.137738 
2101.000000	93.185112 
2100.000000	93.252230 
2099.000000	93.348750 
2098.000000	93.449081 
2097.000000	93.520663 
2096.000000	93.562790 
2095.000000	93.599626 
2094.000000	93.645948 
2093.000000	93.699102 
2092.000000	93.754835 
2091.000000	93.810683 
2090.000000	93.858842 
2089.000000	93.893087 
2088.000000	93.920308 
2087.000000	93.952601 
2086.000000	93.992378 
2085.000000	94.035850 
2084.000000	94.084383 
2083.000000	94.141459 
2082.000000	94.205176 
2081.000000	94.273173 
2080.000000	94.345610 
2079.000000	94.414116 
2078.000000	94.461594 
2077.000000	94.486305 
2076.000000	94.510944 
2075.000000	94.551761 
2074.000000	94.595313 
2073.000000	94.624865 
2072.000000	94.652327 
2071.000000	94.699437 
2070.000000	94.760954 
2069.000000	94.813110 
2068.000000	94.848827 
2067.000000	94.878342 
2066.000000	94.902468 
2065.000000	94.911682 
2064.000000	94.907323 
2063.000000	94.900116 
2062.000000	94.892060 
2061.000000	94.879318 
2060.000000	94.864753 
2059.000000	94.849081 
2058.000000	94.822248 
2057.000000	94.785361 
2056.000000	94.765835 
2055.000000	94.782322 
2054.000000	94.806607 
2053.000000	94.793852 
2052.000000	94.745736 
2051.000000	94.712903 
2050.000000	94.735686 
2049.000000	94.806225 
2048.000000	94.891228 
2047.000000	94.966643 
2046.000000	95.020329 
2045.000000	95.048108 
2044.000000	95.061137 
2043.000000	95.078043 
2042.000000	95.102343 
2041.000000	95.120615 
2040.000000	95.122065 
2039.000000	95.106311 
2038.000000	95.078511 
2037.000000	95.052782 
2036.000000	95.049466 
2035.000000	95.070685 
2034.000000	95.090403 
2033.000000	95.086368 
2032.000000	95.067040 
2031.000000	95.051746 
2030.000000	95.049200 
2029.000000	95.073475 
2028.000000	95.147266 
2027.000000	95.261436 
2026.000000	95.361623 
2025.000000	95.409697 
2024.000000	95.435341 
2023.000000	95.491319 
2022.000000	95.581125 
2021.000000	95.666831 
2020.000000	95.725616 
2019.000000	95.761001 
2018.000000	95.776885 
2017.000000	95.778257 
2016.000000	95.781080 
2015.000000	95.789701 
2014.000000	95.787484 
2013.000000	95.779268 
2012.000000	95.811162 
2011.000000	95.910506 
2010.000000	96.035833 
2009.000000	96.130005 
2008.000000	96.197313 
2007.000000	96.275288 
2006.000000	96.352572 
2005.000000	96.379302 
2004.000000	96.349152 
2003.000000	96.313142 
2002.000000	96.315648 
2001.000000	96.357569 
2000.000000	96.414837 
1999.000000	96.458863 
1998.000000	96.464727 
1997.000000	96.431561 
1996.000000	96.392278 
1995.000000	96.379981 
1994.000000	96.395544 
1993.000000	96.428027 
1992.000000	96.485219 
1991.000000	96.568227 
1990.000000	96.632505 
1989.000000	96.620700 
1988.000000	96.532586 
1987.000000	96.429206 
1986.000000	96.369995 
1985.000000	96.371004 
1984.000000	96.414898 
1983.000000	96.469590 
1982.000000	96.502133 
1981.000000	96.506838 
1980.000000	96.519702 
1979.000000	96.579147 
1978.000000	96.676705 
1977.000000	96.774614 
1976.000000	96.860398 
1975.000000	96.943748 
1974.000000	97.013267 
1973.000000	97.041562 
1972.000000	97.025969 
1971.000000	96.989640 
1970.000000	96.950500 
1969.000000	96.915967 
1968.000000	96.894175 
1967.000000	96.882619 
1966.000000	96.860874 
1965.000000	96.822794 
1964.000000	96.798578 
1963.000000	96.818317 
1962.000000	96.870462 
1961.000000	96.920359 
1960.000000	96.954731 
1959.000000	96.981901 
1958.000000	97.003966 
1957.000000	97.018650 
1956.000000	97.034943 
1955.000000	97.059276 
1954.000000	97.076355 
1953.000000	97.067025 
1952.000000	97.036428 
1951.000000	97.004290 
1950.000000	96.978034 
1949.000000	96.954467 
1948.000000	96.934744 
1947.000000	96.918444 
1946.000000	96.897010 
1945.000000	96.871646 
1944.000000	96.863367 
1943.000000	96.884691 
1942.000000	96.914609 
1941.000000	96.926172 
1940.000000	96.922809 
1939.000000	96.924680 
1938.000000	96.939684 
1937.000000	96.966077 
1936.000000	97.004945 
1935.000000	97.050179 
1934.000000	97.079195 
1933.000000	97.075660 
1932.000000	97.053093 
1931.000000	97.037331 
1930.000000	97.037323 
1929.000000	97.049924 
1928.000000	97.074779 
1927.000000	97.103748 
1926.000000	97.113346 
1925.000000	97.092022 
1924.000000	97.064908 
1923.000000	97.066933 
1922.000000	97.099967 
1921.000000	97.141940 
1920.000000	97.182860 
1919.000000	97.224283 
1918.000000	97.255547 
1917.000000	97.262413 
1916.000000	97.255110 
1915.000000	97.256292 
1914.000000	97.270160 
1913.000000	97.285459 
1912.000000	97.297999 
1911.000000	97.311888 
1910.000000	97.323390 
1909.000000	97.323585 
1908.000000	97.314627 
1907.000000	97.307682 
1906.000000	97.309538 
1905.000000	97.322861 
1904.000000	97.350796 
1903.000000	97.387977 
1902.000000	97.416894 
1901.000000	97.425906 
1900.000000	97.420028 
1899.000000	97.406320 
1898.000000	97.385327 
1897.000000	97.366330 
1896.000000	97.370512 
1895.000000	97.400867 
1894.000000	97.427688 
1893.000000	97.425207 
1892.000000	97.404009 
1891.000000	97.390955 
1890.000000	97.394886 
1889.000000	97.407616 
1888.000000	97.424602 
1887.000000	97.442714 
1886.000000	97.451202 
1885.000000	97.446882 
1884.000000	97.444192 
1883.000000	97.452526 
1882.000000	97.459774 
1881.000000	97.455831 
1880.000000	97.452483 
1879.000000	97.460558 
1878.000000	97.466162 
1877.000000	97.451253 
1876.000000	97.423839 
1875.000000	97.405754 
1874.000000	97.401716 
1873.000000	97.401207 
1872.000000	97.398803 
1871.000000	97.393930 
1870.000000	97.381782 
1869.000000	97.363969 
1868.000000	97.357258 
1867.000000	97.369180 
1866.000000	97.381597 
1865.000000	97.378674 
1864.000000	97.369846 
1863.000000	97.367814 
1862.000000	97.362886 
1861.000000	97.341397 
1860.000000	97.315785 
1859.000000	97.309449 
1858.000000	97.322030 
1857.000000	97.333776 
1856.000000	97.333856 
1855.000000	97.323447 
1854.000000	97.302852 
1853.000000	97.277010 
1852.000000	97.261022 
1851.000000	97.260905 
1850.000000	97.261621 
1849.000000	97.249450 
1848.000000	97.232859 
1847.000000	97.224120 
1846.000000	97.215107 
1845.000000	97.191580 
1844.000000	97.159610 
1843.000000	97.133589 
1842.000000	97.112388 
1841.000000	97.088849 
1840.000000	97.066532 
1839.000000	97.052427 
1838.000000	97.041439 
1837.000000	97.023982 
1836.000000	97.003047 
1835.000000	96.986152 
1834.000000	96.970749 
1833.000000	96.952998 
1832.000000	96.940421 
1831.000000	96.943594 
1830.000000	96.957530 
1829.000000	96.967572 
1828.000000	96.974178 
1827.000000	96.986947 
1826.000000	97.003528 
1825.000000	97.015600 
1824.000000	97.024898 
1823.000000	97.037935 
1822.000000	97.050409 
1821.000000	97.057463 
1820.000000	97.071280 
1819.000000	97.107132 
1818.000000	97.155985 
1817.000000	97.191861 
1816.000000	97.205171 
1815.000000	97.205631 
1814.000000	97.198864 
1813.000000	97.183994 
1812.000000	97.170082 
1811.000000	97.171044 
1810.000000	97.180609 
1809.000000	97.179378 
1808.000000	97.167134 
1807.000000	97.159452 
1806.000000	97.157671 
1805.000000	97.147940 
1804.000000	97.126875 
1803.000000	97.108001 
1802.000000	97.103827 
1801.000000	97.116359 
1800.000000	97.143467 
1799.000000	97.176893 
1798.000000	97.196735 
1797.000000	97.190423 
1796.000000	97.170863 
1795.000000	97.157416 
1794.000000	97.150855 
1793.000000	97.141917 
1792.000000	97.134706 
1791.000000	97.138148 
1790.000000	97.142755 
1789.000000	97.133207 
1788.000000	97.112746 
1787.000000	97.097276 
1786.000000	97.092056 
1785.000000	97.090164 
1784.000000	97.090723 
1783.000000	97.096863 
1782.000000	97.100336 
1781.000000	97.088932 
1780.000000	97.065303 
1779.000000	97.041333 
1778.000000	97.016605 
1777.000000	96.981535 
1776.000000	96.934818 
1775.000000	96.881086 
1774.000000	96.822960 
1773.000000	96.768139 
1772.000000	96.727529 
1771.000000	96.697449 
1770.000000	96.661313 
1769.000000	96.608315 
1768.000000	96.545852 
1767.000000	96.487053 
1766.000000	96.427667 
1765.000000	96.352272 
1764.000000	96.257220 
1763.000000	96.158248 
1762.000000	96.073665 
1761.000000	96.006108 
1760.000000	95.948745 
1759.000000	95.891302 
1758.000000	95.818308 
1757.000000	95.725042 
1756.000000	95.627205 
1755.000000	95.541523 
1754.000000	95.464183 
1753.000000	95.383261 
1752.000000	95.306479 
1751.000000	95.254683 
1750.000000	95.227586 
1749.000000	95.202524 
1748.000000	95.164765 
1747.000000	95.115220 
1746.000000	95.060279 
1745.000000	95.009448 
1744.000000	94.976879 
1743.000000	94.971327 
1742.000000	94.985121 
1741.000000	95.005992 
1740.000000	95.037735 
1739.000000	95.090316 
1738.000000	95.162250 
1737.000000	95.253364 
1736.000000	95.384502 
1735.000000	95.590427 
1734.000000	95.846172 
1733.000000	96.058409 
1732.000000	96.200581 
1731.000000	96.317009 
1730.000000	96.433771 
1729.000000	96.557687 
1728.000000	96.691960 
1727.000000	96.837219 
1726.000000	96.981570 
1725.000000	97.110934 
1724.000000	97.220156 
1723.000000	97.306234 
1722.000000	97.359277 
1721.000000	97.375643 
1720.000000	97.369041 
1719.000000	97.359525 
1718.000000	97.347610 
1717.000000	97.316249 
1716.000000	97.280121 
1715.000000	97.268780 
1714.000000	97.270490 
1713.000000	97.260608 
1712.000000	97.244333 
1711.000000	97.238712 
1710.000000	97.239430 
1709.000000	97.230328 
1708.000000	97.212087 
1707.000000	97.198105 
1706.000000	97.186920 
1705.000000	97.165063 
1704.000000	97.143414 
1703.000000	97.140932 
1702.000000	97.149496 
1701.000000	97.149390 
1700.000000	97.139924 
1699.000000	97.137906 
1698.000000	97.142899 
1697.000000	97.134646 
1696.000000	97.116897 
1695.000000	97.109264 
1694.000000	97.107814 
1693.000000	97.103039 
1692.000000	97.097747 
1691.000000	97.099203 
1690.000000	97.100090 
1689.000000	97.088125 
1688.000000	97.070398 
1687.000000	97.059752 
1686.000000	97.050056 
1685.000000	97.040361 
1684.000000	97.046190 
1683.000000	97.054056 
1682.000000	97.045216 
1681.000000	97.021720 
1680.000000	96.989362 
1679.000000	96.956510 
1678.000000	96.916269 
1677.000000	96.860700 
1676.000000	96.800362 
1675.000000	96.750793 
1674.000000	96.704009 
1673.000000	96.647280 
1672.000000	96.581810 
1671.000000	96.509427 
1670.000000	96.418434 
1669.000000	96.300748 
1668.000000	96.176504 
1667.000000	96.066309 
1666.000000	95.958667 
1665.000000	95.829400 
1664.000000	95.677615 
1663.000000	95.519738 
1662.000000	95.354672 
1661.000000	95.174523 
1660.000000	94.986706 
1659.000000	94.797722 
1658.000000	94.598313 
1657.000000	94.390622 
1656.000000	94.187261 
1655.000000	93.979967 
1654.000000	93.715977 
1653.000000	93.363044 
1652.000000	93.001874 
1651.000000	92.732928 
1650.000000	92.526942 
1649.000000	92.283229 
1648.000000	91.954416 
1647.000000	91.564049 
1646.000000	91.163694 
1645.000000	90.774312 
1644.000000	90.412785 
1643.000000	90.079382 
1642.000000	89.740811 
1641.000000	89.365690 
1640.000000	88.977938 
1639.000000	88.620910 
1638.000000	88.270779 
1637.000000	87.837293 
1636.000000	87.284642 
1635.000000	86.701086 
1634.000000	86.176299 
1633.000000	85.704577 
1632.000000	85.251229 
1631.000000	84.796464 
1630.000000	84.305894 
1629.000000	83.742126 
1628.000000	83.123836 
1627.000000	82.512171 
1626.000000	81.912577 
1625.000000	81.255275 
1624.000000	80.485862 
1623.000000	79.632172 
1622.000000	78.763028 
1621.000000	77.919525 
1620.000000	77.097891 
1619.000000	76.242947 
1618.000000	75.240784 
1617.000000	74.034349 
1616.000000	72.793923 
1615.000000	71.766485 
1614.000000	70.993615 
1613.000000	70.371907 
1612.000000	69.862403 
1611.000000	69.524838 
1610.000000	69.396951 
1609.000000	69.430937 
1608.000000	69.573972 
1607.000000	69.809516 
1606.000000	70.099122 
1605.000000	70.374318 
1604.000000	70.603653 
1603.000000	70.802413 
1602.000000	70.967282 
1601.000000	71.062268 
1600.000000	71.077045 
1599.000000	71.037765 
1598.000000	70.951395 
1597.000000	70.794422 
1596.000000	70.566667 
1595.000000	70.301663 
1594.000000	70.008542 
1593.000000	69.658213 
1592.000000	69.241649 
1591.000000	68.788663 
1590.000000	68.317654 
1589.000000	67.820231 
1588.000000	67.309882 
1587.000000	66.833979 
1586.000000	66.419703 
1585.000000	66.057505 
1584.000000	65.752090 
1583.000000	65.535798 
1582.000000	65.414410 
1581.000000	65.354024 
1580.000000	65.339552 
1579.000000	65.386845 
1578.000000	65.482867 
1577.000000	65.569000 
1576.000000	65.633423 
1575.000000	65.751041 
1574.000000	65.965448 
1573.000000	66.240164 
1572.000000	66.547035 
1571.000000	66.915482 
1570.000000	67.369224 
1569.000000	67.864190 
1568.000000	68.362661 
1567.000000	68.900069 
1566.000000	69.509910 
1565.000000	70.161139 
1564.000000	70.802018 
1563.000000	71.418049 
1562.000000	72.038076 
1561.000000	72.718254 
1560.000000	73.591780 
1559.000000	74.702469 
1558.000000	75.744055 
1557.000000	76.513499 
1556.000000	77.163824 
1555.000000	77.847187 
1554.000000	78.580440 
1553.000000	79.270857 
1552.000000	79.868358 
1551.000000	80.406466 
1550.000000	80.907283 
1549.000000	81.327446 
1548.000000	81.622389 
1547.000000	81.799053 
1546.000000	81.882748 
1545.000000	81.885818 
1544.000000	81.813676 
1543.000000	81.668617 
1542.000000	81.431348 
1541.000000	81.064152 
1540.000000	80.572373 
1539.000000	80.030891 
1538.000000	79.525943 
1537.000000	79.081930 
1536.000000	78.650958 
1535.000000	78.159171 
1534.000000	77.566320 
1533.000000	76.927728 
1532.000000	76.339234 
1531.000000	75.824194 
1530.000000	75.335191 
1529.000000	74.828767 
1528.000000	74.294253 
1527.000000	73.739944 
1526.000000	73.186260 
1525.000000	72.658818 
1524.000000	72.147171 
1523.000000	71.578826 
1522.000000	70.884382 
1521.000000	70.119179 
1520.000000	69.411128 
1519.000000	68.766261 
1518.000000	68.067769 
1517.000000	67.240309 
1516.000000	66.340957 
1515.000000	65.459861 
1514.000000	64.589165 
1513.000000	63.666280 
1512.000000	62.680665 
1511.000000	61.689103 
1510.000000	60.726148 
1509.000000	59.725519 
1508.000000	58.520616 
1507.000000	57.019617 
1506.000000	55.465495 
1505.000000	54.210007 
1504.000000	53.294372 
1503.000000	52.548813 
1502.000000	51.853471 
1501.000000	51.203623 
1500.000000	50.654429 
1499.000000	50.221981 
1498.000000	49.885320 
1497.000000	49.653718 
1496.000000	49.560126 
1495.000000	49.595303 
1494.000000	49.728578 
1493.000000	49.959083 
1492.000000	50.293140 
1491.000000	50.711017 
1490.000000	51.188019 
1489.000000	51.722033 
1488.000000	52.310476 
1487.000000	52.926490 
1486.000000	53.543720 
1485.000000	54.162179 
1484.000000	54.790012 
1483.000000	55.423037 
1482.000000	56.052724 
1481.000000	56.672740 
1480.000000	57.274843 
1479.000000	57.851995 
1478.000000	58.406410 
1477.000000	58.943724 
1476.000000	59.462361 
1475.000000	59.958474 
1474.000000	60.438449 
1473.000000	60.911635 
1472.000000	61.367685 
1471.000000	61.790838 
1470.000000	62.187422 
1469.000000	62.572343 
1468.000000	62.951144 
1467.000000	63.321008 
1466.000000	63.671838 
1465.000000	63.984222 
1464.000000	64.233540 
1463.000000	64.405040 
1462.000000	64.495506 
1461.000000	64.507417 
1460.000000	64.464988 
1459.000000	64.433687 
1458.000000	64.526561 
1457.000000	64.825107 
1456.000000	65.260520 
1455.000000	65.706021 
1454.000000	66.110122 
1453.000000	66.453178 
1452.000000	66.710550 
1451.000000	66.862452 
1450.000000	66.884600 
1449.000000	66.715491 
1448.000000	66.285157 
1447.000000	65.597452 
1446.000000	64.744012 
1445.000000	63.862328 
1444.000000	63.133739 
1443.000000	62.761376 
1442.000000	62.852483 
1441.000000	63.328094 
1440.000000	63.998168 
1439.000000	64.711590 
1438.000000	65.406749 
1437.000000	66.039716 
1436.000000	66.542455 
1435.000000	66.902257 
1434.000000	67.168854 
1433.000000	67.354665 
1432.000000	67.422477 
1431.000000	67.346072 
1430.000000	67.133527 
1429.000000	66.795363 
1428.000000	66.340273 
1427.000000	65.783774 
1426.000000	65.108291 
1425.000000	64.259801 
1424.000000	63.249025 
1423.000000	62.194652 
1422.000000	61.158048 
1421.000000	60.019635 
1420.000000	58.620700 
1419.000000	57.040374 
1418.000000	55.575591 
1417.000000	54.387632 
1416.000000	53.432461 
1415.000000	52.648715 
1414.000000	52.015238 
1413.000000	51.530478 
1412.000000	51.214386 
1411.000000	51.089472 
1410.000000	51.135531 
1409.000000	51.303536 
1408.000000	51.572250 
1407.000000	51.940743 
1406.000000	52.381695 
1405.000000	52.852493 
1404.000000	53.337307 
1403.000000	53.836880 
1402.000000	54.335893 
1401.000000	54.816859 
1400.000000	55.284751 
1399.000000	55.747346 
1398.000000	56.195247 
1397.000000	56.628481 
1396.000000	57.074309 
1395.000000	57.550443 
1394.000000	58.037589 
1393.000000	58.514960 
1392.000000	58.990775 
1391.000000	59.476751 
1390.000000	59.968026 
1389.000000	60.464733 
1388.000000	60.985272 
1387.000000	61.534534 
1386.000000	62.087027 
1385.000000	62.628995 
1384.000000	63.179419 
1383.000000	63.754793 
1382.000000	64.348164 
1381.000000	64.955348 
1380.000000	65.594584 
1379.000000	66.277672 
1378.000000	66.986851 
1377.000000	67.702441 
1376.000000	68.430968 
1375.000000	69.184780 
1374.000000	69.950593 
1373.000000	70.700021 
1372.000000	71.419710 
1371.000000	72.111159 
1370.000000	72.776532 
1369.000000	73.415901 
1368.000000	74.023167 
1367.000000	74.592654 
1366.000000	75.141733 
1365.000000	75.714346 
1364.000000	76.344612 
1363.000000	77.015780 
1362.000000	77.675763 
1361.000000	78.296306 
1360.000000	78.883256 
1359.000000	79.438512 
1358.000000	79.955212 
1357.000000	80.441510 
1356.000000	80.915635 
1355.000000	81.379271 
1354.000000	81.819235 
1353.000000	82.232376 
1352.000000	82.627926 
1351.000000	83.004618 
1350.000000	83.344348 
1349.000000	83.628791 
1348.000000	83.842921 
1347.000000	83.967422 
1346.000000	83.979926 
1345.000000	83.857920 
1344.000000	83.567438 
1343.000000	83.053416 
1342.000000	82.250251 
1341.000000	81.104754 
1340.000000	79.598333 
1339.000000	77.759755 
1338.000000	75.652209 
1337.000000	73.345962 
1336.000000	70.920169 
1335.000000	68.491663 
1334.000000	66.221838 
1333.000000	64.286821 
1332.000000	62.830403 
1331.000000	61.909813 
1330.000000	61.464929 
1329.000000	61.356762 
1328.000000	61.445804 
1327.000000	61.630858 
1326.000000	61.839843 
1325.000000	62.020853 
1324.000000	62.143924 
1323.000000	62.193824 
1322.000000	62.157397 
1321.000000	62.026820 
1320.000000	61.814660 
1319.000000	61.558881 
1318.000000	61.312661 
1317.000000	61.131383 
1316.000000	61.060811 
1315.000000	61.121866 
1314.000000	61.302947 
1313.000000	61.574549 
1312.000000	61.911809 
1311.000000	62.299332 
1310.000000	62.724934 
1309.000000	63.180964 
1308.000000	63.664441 
1307.000000	64.164055 
1306.000000	64.654152 
1305.000000	65.112556 
1304.000000	65.536683 
1303.000000	65.934075 
1302.000000	66.305083 
1301.000000	66.644713 
1300.000000	66.954002 
1299.000000	67.238497 
1298.000000	67.499434 
1297.000000	67.736015 
1296.000000	67.953737 
1295.000000	68.161899 
1294.000000	68.364504 
1293.000000	68.559826 
1292.000000	68.747130 
1291.000000	68.928072 
1290.000000	69.103166 
1289.000000	69.272394 
1288.000000	69.438661 
1287.000000	69.606533 
1286.000000	69.778032 
1285.000000	69.952113 
1284.000000	70.126949 
1283.000000	70.301344 
1282.000000	70.476042 
1281.000000	70.654687 
1280.000000	70.839919 
1279.000000	71.027165 
1278.000000	71.206892 
1277.000000	71.375372 
1276.000000	71.539570 
1275.000000	71.709204 
1274.000000	71.887881 
1273.000000	72.073714 
1272.000000	72.263833 
1271.000000	72.454684 
1270.000000	72.641205 
1269.000000	72.819461 
1268.000000	72.988708 
1267.000000	73.149710 
1266.000000	73.303184 
1265.000000	73.450736 
1264.000000	73.595697 
1263.000000	73.742084 
1262.000000	73.892627 
1261.000000	74.046368 
1260.000000	74.196783 
1259.000000	74.334958 
1258.000000	74.458483 
1257.000000	74.575768 
1256.000000	74.698872 
1255.000000	74.832727 
1254.000000	74.972609 
1253.000000	75.109692 
1252.000000	75.236274 
1251.000000	75.347908 
1250.000000	75.444987 
1249.000000	75.532227 
1248.000000	75.614598 
1247.000000	75.694954 
1246.000000	75.776303 
1245.000000	75.862138 
1244.000000	75.951302 
1243.000000	76.035350 
1242.000000	76.104880 
1241.000000	76.157512 
1240.000000	76.198041 
1239.000000	76.233413 
1238.000000	76.269264 
1237.000000	76.308132 
1236.000000	76.348637 
1235.000000	76.388761 
1234.000000	76.431868 
1233.000000	76.487056 
1232.000000	76.562439 
1231.000000	76.661151 
1230.000000	76.784214 
1229.000000	76.931692 
1228.000000	77.098452 
1227.000000	77.274978 
1226.000000	77.457913 
1225.000000	77.654578 
1224.000000	77.867940 
1223.000000	78.076470 
1222.000000	78.235772 
1221.000000	78.306943 
1220.000000	78.290386 
1219.000000	78.238973 
1218.000000	78.234121 
1217.000000	78.333874 
1216.000000	78.534088 
1215.000000	78.778675 
1214.000000	79.007295 
1213.000000	79.191710 
1212.000000	79.332771 
1211.000000	79.440257 
1210.000000	79.524559 
1209.000000	79.597093 
1208.000000	79.666823 
1207.000000	79.737866 
1206.000000	79.814437 
1205.000000	79.903861 
1204.000000	80.011341 
1203.000000	80.136573 
1202.000000	80.278252 
1201.000000	80.435888 
1200.000000	80.604291 
1199.000000	80.774361 
1198.000000	80.944654 
1197.000000	81.124559 
1196.000000	81.320407 
1195.000000	81.525810 
1194.000000	81.731449 
1193.000000	81.936403 
1192.000000	82.142412 
1191.000000	82.345013 
1190.000000	82.539684 
1189.000000	82.730558 
1188.000000	82.923584 
1187.000000	83.115744 
1186.000000	83.299989 
1185.000000	83.477454 
1184.000000	83.656357 
1183.000000	83.840266 
1182.000000	84.023103 
1181.000000	84.194205 
1180.000000	84.345061 
1179.000000	84.475032 
1178.000000	84.594724 
1177.000000	84.720195 
1176.000000	84.859912 
1175.000000	85.008576 
1174.000000	85.153511 
1173.000000	85.283205 
1172.000000	85.390843 
1171.000000	85.478094 
1170.000000	85.558095 
1169.000000	85.647718 
1168.000000	85.753831 
1167.000000	85.870889 
1166.000000	85.990466 
1165.000000	86.105975 
1164.000000	86.209738 
1163.000000	86.296048 
1162.000000	86.368489 
1161.000000	86.434844 
1160.000000	86.494248 
1159.000000	86.539475 
1158.000000	86.572185 
1157.000000	86.603769 
1156.000000	86.638964 
1155.000000	86.670497 
1154.000000	86.692855 
1153.000000	86.708994 
1152.000000	86.717905 
1151.000000	86.706088 
1150.000000	86.658584 
1149.000000	86.572004 
1148.000000	86.451653 
1147.000000	86.300464 
1146.000000	86.112109 
1145.000000	85.868989 
1144.000000	85.546171 
1143.000000	85.123570 
1142.000000	84.595849 
1141.000000	83.967666 
1140.000000	83.244566 
1139.000000	82.437087 
1138.000000	81.572202 
1137.000000	80.695965 
1136.000000	79.867624 
1135.000000	79.151237 
1134.000000	78.603816 
1133.000000	78.264560 
1132.000000	78.152018 
1131.000000	78.263220 
1130.000000	78.569644 
1129.000000	79.018142 
1128.000000	79.541079 
1127.000000	80.069075 
1126.000000	80.540779 
1125.000000	80.907571 
1124.000000	81.133104 
1123.000000	81.191673 
1122.000000	81.066865 
1121.000000	80.748243 
1120.000000	80.230187 
1119.000000	79.516681 
1118.000000	78.624611 
1117.000000	77.582897 
1116.000000	76.437677 
1115.000000	75.259494 
1114.000000	74.133052 
1113.000000	73.135131 
1112.000000	72.325368 
1111.000000	71.746333 
1110.000000	71.415031 
1109.000000	71.316482 
1108.000000	71.415589 
1107.000000	71.674322 
1106.000000	72.056472 
1105.000000	72.524861 
1104.000000	73.041214 
1103.000000	73.569944 
1102.000000	74.086600 
1101.000000	74.586205 
1100.000000	75.080758 
1099.000000	75.583181 
1098.000000	76.089781 
1097.000000	76.582030 
1096.000000	77.044032 
1095.000000	77.476367 
1094.000000	77.891835 
1093.000000	78.300240 
1092.000000	78.700886 
1091.000000	79.089372 
1090.000000	79.465176 
1089.000000	79.827894 
1088.000000	80.171103 
1087.000000	80.488385 
1086.000000	80.784055 
1085.000000	81.069810 
1084.000000	81.350914 
1083.000000	81.622943 
1082.000000	81.881377 
1081.000000	82.126150 
1080.000000	82.356802 
1079.000000	82.572264 
1078.000000	82.777235 
1077.000000	82.980834 
1076.000000	83.186959 
1075.000000	83.392056 
1074.000000	83.592039 
1073.000000	83.784296 
1072.000000	83.963887 
1071.000000	84.126493 
1070.000000	84.275496 
1069.000000	84.418586 
1068.000000	84.558212 
1067.000000	84.692416 
1066.000000	84.821999 
1065.000000	84.947620 
1064.000000	85.062505 
1063.000000	85.158407 
1062.000000	85.237576 
1061.000000	85.310208 
1060.000000	85.383627 
1059.000000	85.463081 
1058.000000	85.556697 
1057.000000	85.665971 
1056.000000	85.775130 
1055.000000	85.864764 
1054.000000	85.935248 
1053.000000	86.003078 
1052.000000	86.075548 
1051.000000	86.146504 
1050.000000	86.218510 
1049.000000	86.308220 
1048.000000	86.422926 
1047.000000	86.549059 
1046.000000	86.668710 
1045.000000	86.769342 
1044.000000	86.828492 
1043.000000	86.800991 
1042.000000	86.629053 
1041.000000	86.257527 
1040.000000	85.638453 
1039.000000	84.739266 
1038.000000	83.565846 
1037.000000	82.186253 
1036.000000	80.738067 
1035.000000	79.407118 
1034.000000	78.373256 
1033.000000	77.751171 
1032.000000	77.564584 
1031.000000	77.755594 
1030.000000	78.213480 
1029.000000	78.816000 
1028.000000	79.466817 
1027.000000	80.108237 
1026.000000	80.710906 
1025.000000	81.260399 
1024.000000	81.754026 
1023.000000	82.201354 
1022.000000	82.614678 
1021.000000	82.993281 
1020.000000	83.322734 
1019.000000	83.594507 
1018.000000	83.820650 
1017.000000	84.023788 
1016.000000	84.218530 
1015.000000	84.407158 
1014.000000	84.584805 
1013.000000	84.742169 
1012.000000	84.872341 
1011.000000	84.983549 
1010.000000	85.095805 
1009.000000	85.215318 
1008.000000	85.323021 
1007.000000	85.400540 
1006.000000	85.456417 
1005.000000	85.512058 
1004.000000	85.574384 
1003.000000	85.642616 
1002.000000	85.731136 
1001.000000	85.857596 
1000.000000	86.008204 
999.000000	 86.140213 
998.000000	 86.226951 
997.000000	 86.282621 
996.000000	 86.336067 
995.000000	 86.397891 
994.000000	 86.461903 
993.000000	 86.523473 
992.000000	 86.584681 
991.000000	 86.649290 
990.000000	 86.720129 
989.000000	 86.795710 
988.000000	 86.866517 
987.000000	 86.922398 
986.000000	 86.965816 
985.000000	 87.009451 
984.000000	 87.059685 
983.000000	 87.111816 
982.000000	 87.161924 
981.000000	 87.212784 
980.000000	 87.267366 
979.000000	 87.328467 
978.000000	 87.406578 
977.000000	 87.515133 
976.000000	 87.653073 
975.000000	 87.802148 
974.000000	 87.945987 
973.000000	 88.082944 
972.000000	 88.217071 
971.000000	 88.347014 
970.000000	 88.468501 
969.000000	 88.579135 
968.000000	 88.677453 
967.000000	 88.765345 
966.000000	 88.851816 
965.000000	 88.943843 
964.000000	 89.033822 
963.000000	 89.109545 
962.000000	 89.177108 
961.000000	 89.256859 
960.000000	 89.351886 
959.000000	 89.437926 
958.000000	 89.493786 
957.000000	 89.526552 
956.000000	 89.554647 
955.000000	 89.579531 
954.000000	 89.589964 
953.000000	 89.586839 
952.000000	 89.587859 
951.000000	 89.608029 
950.000000	 89.646142 
949.000000	 89.691851 
948.000000	 89.738999 
947.000000	 89.789751 
946.000000	 89.849178 
945.000000	 89.917948 
944.000000	 89.990587 
943.000000	 90.060775 
942.000000	 90.126100 
941.000000	 90.185674 
940.000000	 90.236895 
939.000000	 90.279703 
938.000000	 90.320536 
937.000000	 90.364622 
936.000000	 90.405770 
935.000000	 90.430503 
934.000000	 90.430611 
933.000000	 90.404965 
932.000000	 90.351966 
931.000000	 90.269016 
930.000000	 90.157279 
929.000000	 90.016935 
928.000000	 89.837301 
927.000000	 89.598546 
926.000000	 89.281695 
925.000000	 88.870356 
924.000000	 88.345504 
923.000000	 87.684885 
922.000000	 86.861416 
921.000000	 85.832879 
920.000000	 84.538679 
919.000000	 82.916797 
918.000000	 80.922095 
917.000000	 78.530033 
916.000000	 75.746902 
915.000000	 72.638778 
914.000000	 69.346180 
913.000000	 66.064051 
912.000000	 63.013893 
911.000000	 60.419681 
910.000000	 58.468339 
909.000000	 57.267331 
908.000000	 56.830251 
907.000000	 57.086108 
906.000000	 57.902912 
905.000000	 59.128648 
904.000000	 60.623070 
903.000000	 62.250632 
902.000000	 63.860144 
901.000000	 65.286017 
900.000000	 66.353084 
899.000000	 66.865285 
898.000000	 66.614046 
897.000000	 65.446605 
896.000000	 63.372328 
895.000000	 60.638170 
894.000000	 57.711858 
893.000000	 55.169063 
892.000000	 53.528949 
891.000000	 53.079805 
890.000000	 53.771029 
889.000000	 55.273698 
888.000000	 57.179545 
887.000000	 59.173901 
886.000000	 61.086096 
885.000000	 62.853868 
884.000000	 64.470004 
883.000000	 65.944347 
882.000000	 67.288595 
881.000000	 68.518254 
880.000000	 69.654419 
879.000000	 70.714790 
878.000000	 71.704399 
877.000000	 72.618530 
876.000000	 73.451418 
875.000000	 74.199419 
874.000000	 74.861962 
873.000000	 75.446911 
872.000000	 75.974115 
871.000000	 76.467201 
870.000000	 76.938356 
869.000000	 77.383081 
868.000000	 77.791882 
867.000000	 78.165079 
866.000000	 78.512986 
865.000000	 78.843597 
864.000000	 79.157284 
863.000000	 79.455389 
862.000000	 79.744717 
861.000000	 80.025488 
860.000000	 80.281733 
859.000000	 80.496729 
858.000000	 80.677603 
857.000000	 80.852703 
856.000000	 81.041993 
855.000000	 81.240033 
854.000000	 81.431685 
853.000000	 81.614712 
852.000000	 81.799159 
851.000000	 81.989926 
850.000000	 82.177675 
849.000000	 82.346197 
848.000000	 82.485525 
847.000000	 82.599495 
846.000000	 82.703163 
845.000000	 82.812485 
844.000000	 82.936198 
843.000000	 83.076139 
842.000000	 83.229321 
841.000000	 83.385641 
840.000000	 83.529271 
839.000000	 83.650211 
838.000000	 83.752359 
837.000000	 83.844424 
836.000000	 83.928284 
835.000000	 84.005209 
834.000000	 84.087486 
833.000000	 84.189823 
832.000000	 84.309273 
831.000000	 84.425682 
830.000000	 84.524347 
829.000000	 84.608778 
828.000000	 84.691164 
827.000000	 84.782892 
826.000000	 84.895008 
825.000000	 85.031931 
824.000000	 85.179235 
823.000000	 85.311354 
822.000000	 85.416896 
821.000000	 85.505211 
820.000000	 85.588167 
819.000000	 85.669786 
818.000000	 85.752992 
817.000000	 85.840577 
816.000000	 85.926623 
815.000000	 86.000274 
814.000000	 86.061849 
813.000000	 86.123587 
812.000000	 86.190921 
811.000000	 86.254649 
810.000000	 86.306471 
809.000000	 86.352092 
808.000000	 86.403941 
807.000000	 86.469276 
806.000000	 86.548590 
805.000000	 86.638066 
804.000000	 86.732319 
803.000000	 86.832411 
802.000000	 86.948808 
801.000000	 87.084307 
800.000000	 87.216436 
799.000000	 87.314144 
798.000000	 87.375309 
797.000000	 87.430682 
796.000000	 87.504691 
795.000000	 87.588079 
794.000000	 87.655796 
793.000000	 87.697108 
792.000000	 87.719588 
791.000000	 87.735921 
790.000000	 87.755611 
789.000000	 87.779504 
788.000000	 87.795658 
787.000000	 87.790419 
786.000000	 87.768864 
785.000000	 87.753371 
784.000000	 87.757208 
783.000000	 87.772458 
782.000000	 87.790032 
781.000000	 87.816544 
780.000000	 87.859900 
779.000000	 87.909656 
778.000000	 87.945967 
777.000000	 87.963592 
776.000000	 87.977033 
775.000000	 88.004930 
774.000000	 88.055601 
773.000000	 88.123741 
772.000000	 88.195298 
771.000000	 88.258494 
770.000000	 88.313648 
769.000000	 88.368381 
768.000000	 88.423706 
767.000000	 88.474280 
766.000000	 88.523389 
765.000000	 88.584629 
764.000000	 88.661750 
763.000000	 88.736945 
762.000000	 88.787815 
761.000000	 88.810211 
760.000000	 88.818518 
759.000000	 88.830456 
758.000000	 88.858416 
757.000000	 88.909188 
756.000000	 88.982760 
755.000000	 89.071169 
754.000000	 89.162566 
753.000000	 89.247333 
752.000000	 89.321433 
751.000000	 89.386693 
750.000000	 89.446139 
749.000000	 89.497009 
748.000000	 89.534827 
747.000000	 89.570261 
746.000000	 89.631479 
745.000000	 89.734999 
744.000000	 89.859753 
743.000000	 89.966534 
742.000000	 90.040978 
741.000000	 90.101016 
740.000000	 90.165059 
739.000000	 90.234825 
738.000000	 90.310734 
737.000000	 90.399203 
736.000000	 90.494821 
735.000000	 90.575706 
734.000000	 90.630633 
733.000000	 90.676512 
732.000000	 90.735976 
731.000000	 90.809717 
730.000000	 90.882866 
729.000000	 90.947406 
728.000000	 91.005231 
727.000000	 91.057946 
726.000000	 91.106755 
725.000000	 91.156295 
724.000000	 91.205806 
723.000000	 91.238734 
722.000000	 91.230829 
721.000000	 91.170151 
720.000000	 91.065636 
719.000000	 90.932665 
718.000000	 90.771494 
717.000000	 90.563719 
716.000000	 90.287349 
715.000000	 89.931896 
714.000000	 89.496303 
713.000000	 88.970911 
712.000000	 88.326876 
711.000000	 87.526486 
710.000000	 86.538098 
709.000000	 85.338766 
708.000000	 83.912986 
707.000000	 82.260153 
706.000000	 80.404830 
705.000000	 78.402890 
704.000000	 76.344720 
703.000000	 74.345874 
702.000000	 72.518129 
701.000000	 70.943267 
700.000000	 69.673262 
699.000000	 68.743703 
698.000000	 68.173490 
697.000000	 67.951164 
696.000000	 68.032841 
695.000000	 68.366487 
694.000000	 68.918816 
693.000000	 69.664409 
692.000000	 70.549386 
691.000000	 71.495691 
690.000000	 72.456886 
689.000000	 73.442917 
688.000000	 74.466027 
687.000000	 75.487275 
686.000000	 76.445722 
685.000000	 77.318316 
684.000000	 78.125087 
683.000000	 78.893765 
682.000000	 79.637113 
681.000000	 80.349402 
680.000000	 81.014184 
679.000000	 81.629349 
678.000000	 82.219110 
677.000000	 82.799060 
676.000000	 83.348702 
675.000000	 83.835497 
674.000000	 84.268164 
673.000000	 84.683855 
672.000000	 85.078777 
671.000000	 85.413774 
670.000000	 85.695228 
669.000000	 86.039831 
668.000000	 86.489614 
667.000000	 86.830310 
666.000000	 87.031854 
665.000000	 87.227253 
664.000000	 87.455062 
663.000000	 87.705210 
662.000000	 87.955139 
661.000000	 88.192423 
660.000000	 88.404930 
659.000000	 88.564378 
658.000000	 88.661328 
657.000000	 88.732781 
656.000000	 88.826641 
655.000000	 88.948894 
654.000000	 89.082967 
653.000000	 89.228310 
652.000000	 89.380885 
651.000000	 89.518127 
650.000000	 89.642215 

