PE IR                   SPECTRUM    ASCII       PEDS        1.60        
  -1
~SP.SP
18/03/23
18:10:09.00
18/03/23
18:10:09.00
pili
NI
650.000000
4









SPECTRUM 100,CPU32 MAIN 00.02.8200 12-DECEMBER-2006 10:00:00
MIR TGS
MIR
OPTKBR
78890
0.200000

4.000000
STRONG
RATIO
SPECTRUM
MAGNITUDE
UNIVERSAL ATR
DOUBLE

COMBINED


0


#HDR
-1
-1
#GR
CM-1
%T
0.00002384185791015625
0.0
4000.000000
-1.000000
3351
8
99.349499
29.768760
#DATA
4000.000000	98.028784 
3999.000000	98.042392 
3998.000000	98.053009 
3997.000000	98.059642 
3996.000000	98.063800 
3995.000000	98.069612 
3994.000000	98.080915 
3993.000000	98.098540 
3992.000000	98.119080 
3991.000000	98.136838 
3990.000000	98.147184 
3989.000000	98.148476 
3988.000000	98.141677 
3987.000000	98.129052 
3986.000000	98.113544 
3985.000000	98.098624 
3984.000000	98.087445 
3983.000000	98.081338 
3982.000000	98.079189 
3981.000000	98.078834 
3980.000000	98.079503 
3979.000000	98.082358 
3978.000000	98.088243 
3977.000000	98.095460 
3976.000000	98.100627 
3975.000000	98.101635 
3974.000000	98.098902 
3973.000000	98.093874 
3972.000000	98.087632 
3971.000000	98.081301 
3970.000000	98.076838 
3969.000000	98.076254 
3968.000000	98.080154 
3967.000000	98.087712 
3966.000000	98.097430 
3965.000000	98.107447 
3964.000000	98.115718 
3963.000000	98.120620 
3962.000000	98.121506 
3961.000000	98.118639 
3960.000000	98.113068 
3959.000000	98.106326 
3958.000000	98.099916 
3957.000000	98.094716 
3956.000000	98.091201 
3955.000000	98.090877 
3954.000000	98.096214 
3953.000000	98.108752 
3952.000000	98.127127 
3951.000000	98.147170 
3950.000000	98.164210 
3949.000000	98.174700 
3948.000000	98.176798 
3947.000000	98.170178 
3946.000000	98.155875 
3945.000000	98.136821 
3944.000000	98.118506 
3943.000000	98.107621 
3942.000000	98.106955 
3941.000000	98.111832 
3940.000000	98.113912 
3939.000000	98.108307 
3938.000000	98.096860 
3937.000000	98.085317 
3936.000000	98.077772 
3935.000000	98.074437 
3934.000000	98.072623 
3933.000000	98.069584 
3932.000000	98.064738 
3931.000000	98.060221 
3930.000000	98.058514 
3929.000000	98.058242 
3928.000000	98.054232 
3927.000000	98.043024 
3926.000000	98.027375 
3925.000000	98.014445 
3924.000000	98.008934 
3923.000000	98.010414 
3922.000000	98.017484 
3921.000000	98.029304 
3920.000000	98.042936 
3919.000000	98.052675 
3918.000000	98.054876 
3917.000000	98.051856 
3916.000000	98.048686 
3915.000000	98.047783 
3914.000000	98.048543 
3913.000000	98.050263 
3912.000000	98.054048 
3911.000000	98.061789 
3910.000000	98.074462 
3909.000000	98.090464 
3908.000000	98.104679 
3907.000000	98.112174 
3906.000000	98.113731 
3905.000000	98.118542 
3904.000000	98.135800 
3903.000000	98.161670 
3902.000000	98.181433 
3901.000000	98.185298 
3900.000000	98.176528 
3899.000000	98.164792 
3898.000000	98.155105 
3897.000000	98.146457 
3896.000000	98.137607 
3895.000000	98.128117 
3894.000000	98.117262 
3893.000000	98.106851 
3892.000000	98.104365 
3891.000000	98.116293 
3890.000000	98.136656 
3889.000000	98.151872 
3888.000000	98.152568 
3887.000000	98.141045 
3886.000000	98.130376 
3885.000000	98.130643 
3884.000000	98.138146 
3883.000000	98.144398 
3882.000000	98.146898 
3881.000000	98.148888 
3880.000000	98.152145 
3879.000000	98.153212 
3878.000000	98.147320 
3877.000000	98.135166 
3876.000000	98.124099 
3875.000000	98.124417 
3874.000000	98.138913 
3873.000000	98.156425 
3872.000000	98.162983 
3871.000000	98.161070 
3870.000000	98.167874 
3869.000000	98.187175 
3868.000000	98.202516 
3867.000000	98.201492 
3866.000000	98.187837 
3865.000000	98.173507 
3864.000000	98.166679 
3863.000000	98.166868 
3862.000000	98.170493 
3861.000000	98.173899 
3860.000000	98.174653 
3859.000000	98.175599 
3858.000000	98.183685 
3857.000000	98.199593 
3856.000000	98.209711 
3855.000000	98.199369 
3854.000000	98.186402 
3853.000000	98.195136 
3852.000000	98.208461 
3851.000000	98.204297 
3850.000000	98.191024 
3849.000000	98.183975 
3848.000000	98.188219 
3847.000000	98.198287 
3846.000000	98.206520 
3845.000000	98.208778 
3844.000000	98.205471 
3843.000000	98.199889 
3842.000000	98.196181 
3841.000000	98.195540 
3840.000000	98.195127 
3839.000000	98.191503 
3838.000000	98.184575 
3837.000000	98.178138 
3836.000000	98.175658 
3835.000000	98.177583 
3834.000000	98.181969 
3833.000000	98.186120 
3832.000000	98.188919 
3831.000000	98.190455 
3830.000000	98.190035 
3829.000000	98.187885 
3828.000000	98.187201 
3827.000000	98.191304 
3826.000000	98.197859 
3825.000000	98.197197 
3824.000000	98.179520 
3823.000000	98.146639 
3822.000000	98.121524 
3821.000000	98.129643 
3820.000000	98.163056 
3819.000000	98.192988 
3818.000000	98.206343 
3817.000000	98.211660 
3816.000000	98.221885 
3815.000000	98.233995 
3814.000000	98.235494 
3813.000000	98.225543 
3812.000000	98.213514 
3811.000000	98.203696 
3810.000000	98.191704 
3809.000000	98.174225 
3808.000000	98.161087 
3807.000000	98.167831 
3806.000000	98.193471 
3805.000000	98.219822 
3804.000000	98.232391 
3803.000000	98.230588 
3802.000000	98.227683 
3801.000000	98.232925 
3800.000000	98.235045 
3799.000000	98.223881 
3798.000000	98.207679 
3797.000000	98.200310 
3796.000000	98.205464 
3795.000000	98.214802 
3794.000000	98.219889 
3793.000000	98.220432 
3792.000000	98.220124 
3791.000000	98.219662 
3790.000000	98.216741 
3789.000000	98.209472 
3788.000000	98.197833 
3787.000000	98.183946 
3786.000000	98.172284 
3785.000000	98.167798 
3784.000000	98.171769 
3783.000000	98.180205 
3782.000000	98.188161 
3781.000000	98.194786 
3780.000000	98.203351 
3779.000000	98.214204 
3778.000000	98.221101 
3777.000000	98.217766 
3776.000000	98.205005 
3775.000000	98.188658 
3774.000000	98.173251 
3773.000000	98.159909 
3772.000000	98.149956 
3771.000000	98.148061 
3770.000000	98.158098 
3769.000000	98.175680 
3768.000000	98.191045 
3767.000000	98.200305 
3766.000000	98.206044 
3765.000000	98.209329 
3764.000000	98.206657 
3763.000000	98.195958 
3762.000000	98.182580 
3761.000000	98.176023 
3760.000000	98.181380 
3759.000000	98.193795 
3758.000000	98.204548 
3757.000000	98.210729 
3756.000000	98.216160 
3755.000000	98.226004 
3754.000000	98.241650 
3753.000000	98.258941 
3752.000000	98.271791 
3751.000000	98.280613 
3750.000000	98.291283 
3749.000000	98.306555 
3748.000000	98.322745 
3747.000000	98.332209 
3746.000000	98.330123 
3745.000000	98.329644 
3744.000000	98.342619 
3743.000000	98.352252 
3742.000000	98.345055 
3741.000000	98.333704 
3740.000000	98.333351 
3739.000000	98.343986 
3738.000000	98.353350 
3737.000000	98.353900 
3736.000000	98.350953 
3735.000000	98.354126 
3734.000000	98.366543 
3733.000000	98.384031 
3732.000000	98.397571 
3731.000000	98.397001 
3730.000000	98.379523 
3729.000000	98.354134 
3728.000000	98.333904 
3727.000000	98.325933 
3726.000000	98.326081 
3725.000000	98.323383 
3724.000000	98.311652 
3723.000000	98.294709 
3722.000000	98.281513 
3721.000000	98.276106 
3720.000000	98.276034 
3719.000000	98.277750 
3718.000000	98.280576 
3717.000000	98.286899 
3716.000000	98.296823 
3715.000000	98.305317 
3714.000000	98.303634 
3713.000000	98.287207 
3712.000000	98.264372 
3711.000000	98.249365 
3710.000000	98.249072 
3709.000000	98.261945 
3708.000000	98.283446 
3707.000000	98.308390 
3706.000000	98.329971 
3705.000000	98.339205 
3704.000000	98.329652 
3703.000000	98.303131 
3702.000000	98.272262 
3701.000000	98.250121 
3700.000000	98.239734 
3699.000000	98.237535 
3698.000000	98.241028 
3697.000000	98.250432 
3696.000000	98.263995 
3695.000000	98.276391 
3694.000000	98.282249 
3693.000000	98.280087 
3692.000000	98.271552 
3691.000000	98.259943 
3690.000000	98.251093 
3689.000000	98.249955 
3688.000000	98.252782 
3687.000000	98.253646 
3686.000000	98.256170 
3685.000000	98.266439 
3684.000000	98.281248 
3683.000000	98.288185 
3682.000000	98.279647 
3681.000000	98.264456 
3680.000000	98.259247 
3679.000000	98.266319 
3678.000000	98.265844 
3677.000000	98.237928 
3676.000000	98.198549 
3675.000000	98.181767 
3674.000000	98.189965 
3673.000000	98.203434 
3672.000000	98.212219 
3671.000000	98.220579 
3670.000000	98.239461 
3669.000000	98.265537 
3668.000000	98.280792 
3667.000000	98.277317 
3666.000000	98.262799 
3665.000000	98.249078 
3664.000000	98.242433 
3663.000000	98.241800 
3662.000000	98.244530 
3661.000000	98.251550 
3660.000000	98.263397 
3659.000000	98.274863 
3658.000000	98.278230 
3657.000000	98.274698 
3656.000000	98.274509 
3655.000000	98.281743 
3654.000000	98.291235 
3653.000000	98.297373 
3652.000000	98.298627 
3651.000000	98.298170 
3650.000000	98.303488 
3649.000000	98.316782 
3648.000000	98.330284 
3647.000000	98.338005 
3646.000000	98.342714 
3645.000000	98.350007 
3644.000000	98.363267 
3643.000000	98.382432 
3642.000000	98.402779 
3641.000000	98.416908 
3640.000000	98.419637 
3639.000000	98.413535 
3638.000000	98.406855 
3637.000000	98.406363 
3636.000000	98.414002 
3635.000000	98.428424 
3634.000000	98.447278 
3633.000000	98.466645 
3632.000000	98.481868 
3631.000000	98.491891 
3630.000000	98.506019 
3629.000000	98.537673 
3628.000000	98.577150 
3627.000000	98.597611 
3626.000000	98.590108 
3625.000000	98.564061 
3624.000000	98.529548 
3623.000000	98.492912 
3622.000000	98.460327 
3621.000000	98.439690 
3620.000000	98.437528 
3619.000000	98.451471 
3618.000000	98.468517 
3617.000000	98.477395 
3616.000000	98.477796 
3615.000000	98.475895 
3614.000000	98.478949 
3613.000000	98.492498 
3612.000000	98.517478 
3611.000000	98.549510 
3610.000000	98.580207 
3609.000000	98.599734 
3608.000000	98.602829 
3607.000000	98.593400 
3606.000000	98.582677 
3605.000000	98.580740 
3604.000000	98.589691 
3603.000000	98.603881 
3602.000000	98.615641 
3601.000000	98.620623 
3600.000000	98.619020 
3599.000000	98.614378 
3598.000000	98.612529 
3597.000000	98.621101 
3596.000000	98.644348 
3595.000000	98.677454 
3594.000000	98.707750 
3593.000000	98.723690 
3592.000000	98.722576 
3591.000000	98.709596 
3590.000000	98.691753 
3589.000000	98.676310 
3588.000000	98.672237 
3587.000000	98.684598 
3586.000000	98.707607 
3585.000000	98.729409 
3584.000000	98.740581 
3583.000000	98.737481 
3582.000000	98.722532 
3581.000000	98.704747 
3580.000000	98.695722 
3579.000000	98.701529 
3578.000000	98.717463 
3577.000000	98.731873 
3576.000000	98.735408 
3575.000000	98.726660 
3574.000000	98.711219 
3573.000000	98.697662 
3572.000000	98.693905 
3571.000000	98.704788 
3570.000000	98.728899 
3569.000000	98.757411 
3568.000000	98.778512 
3567.000000	98.787235 
3566.000000	98.789375 
3565.000000	98.794819 
3564.000000	98.808199 
3563.000000	98.825224 
3562.000000	98.836942 
3561.000000	98.838084 
3560.000000	98.831442 
3559.000000	98.824812 
3558.000000	98.824477 
3557.000000	98.831748 
3556.000000	98.843800 
3555.000000	98.856783 
3554.000000	98.868926 
3553.000000	98.882310 
3552.000000	98.900395 
3551.000000	98.924032 
3550.000000	98.950301 
3549.000000	98.974394 
3548.000000	98.991235 
3547.000000	98.997525 
3546.000000	98.994442 
3545.000000	98.987984 
3544.000000	98.983903 
3543.000000	98.982288 
3542.000000	98.978616 
3541.000000	98.970065 
3540.000000	98.959636 
3539.000000	98.954315 
3538.000000	98.959274 
3537.000000	98.974200 
3536.000000	98.993392 
3535.000000	99.009640 
3534.000000	99.018930 
3533.000000	99.022759 
3532.000000	99.026176 
3531.000000	99.033377 
3530.000000	99.045210 
3529.000000	99.060012 
3528.000000	99.075225 
3527.000000	99.087709 
3526.000000	99.094366 
3525.000000	99.094455 
3524.000000	99.091663 
3523.000000	99.092291 
3522.000000	99.099726 
3521.000000	99.110397 
3520.000000	99.115693 
3519.000000	99.109974 
3518.000000	99.097700 
3517.000000	99.092196 
3516.000000	99.104381 
3515.000000	99.132001 
3514.000000	99.160921 
3513.000000	99.177825 
3512.000000	99.180953 
3511.000000	99.178570 
3510.000000	99.178992 
3509.000000	99.183679 
3508.000000	99.188913 
3507.000000	99.191120 
3506.000000	99.189276 
3505.000000	99.184285 
3504.000000	99.178158 
3503.000000	99.173945 
3502.000000	99.174673 
3501.000000	99.180819 
3500.000000	99.188679 
3499.000000	99.192704 
3498.000000	99.191235 
3497.000000	99.189205 
3496.000000	99.192480 
3495.000000	99.199041 
3494.000000	99.199206 
3493.000000	99.186833 
3492.000000	99.167889 
3491.000000	99.155066 
3490.000000	99.155056 
3489.000000	99.163802 
3488.000000	99.174201 
3487.000000	99.184500 
3486.000000	99.197255 
3485.000000	99.212537 
3484.000000	99.225225 
3483.000000	99.228600 
3482.000000	99.219476 
3481.000000	99.200451 
3480.000000	99.178638 
3479.000000	99.162219 
3478.000000	99.156174 
3477.000000	99.159545 
3476.000000	99.166856 
3475.000000	99.172902 
3474.000000	99.176616 
3473.000000	99.180390 
3472.000000	99.186348 
3471.000000	99.193911 
3470.000000	99.200824 
3469.000000	99.205686 
3468.000000	99.209241 
3467.000000	99.213893 
3466.000000	99.222059 
3465.000000	99.233966 
3464.000000	99.245940 
3463.000000	99.251896 
3462.000000	99.249234 
3461.000000	99.243735 
3460.000000	99.246088 
3459.000000	99.261408 
3458.000000	99.282904 
3457.000000	99.298077 
3456.000000	99.300338 
3455.000000	99.293511 
3454.000000	99.285873 
3453.000000	99.282394 
3452.000000	99.283205 
3451.000000	99.286184 
3450.000000	99.289108 
3449.000000	99.290373 
3448.000000	99.290035 
3447.000000	99.290274 
3446.000000	99.293482 
3445.000000	99.299045 
3444.000000	99.302469 
3443.000000	99.298595 
3442.000000	99.286678 
3441.000000	99.272928 
3440.000000	99.267061 
3439.000000	99.275102 
3438.000000	99.294319 
3437.000000	99.314751 
3436.000000	99.325984 
3435.000000	99.323827 
3434.000000	99.311961 
3433.000000	99.298527 
3432.000000	99.291455 
3431.000000	99.295497 
3430.000000	99.310930 
3429.000000	99.332168 
3428.000000	99.348337 
3427.000000	99.349499 
3426.000000	99.335258 
3425.000000	99.315752 
3424.000000	99.301905 
3423.000000	99.295817 
3422.000000	99.292398 
3421.000000	99.288366 
3420.000000	99.285298 
3419.000000	99.284416 
3418.000000	99.283091 
3417.000000	99.278083 
3416.000000	99.269139 
3415.000000	99.257791 
3414.000000	99.245378 
3413.000000	99.234288 
3412.000000	99.228691 
3411.000000	99.230865 
3410.000000	99.237309 
3409.000000	99.240865 
3408.000000	99.237404 
3407.000000	99.229824 
3406.000000	99.224937 
3405.000000	99.226373 
3404.000000	99.229917 
3403.000000	99.226114 
3402.000000	99.208653 
3401.000000	99.181106 
3400.000000	99.155003 
3399.000000	99.140701 
3398.000000	99.139440 
3397.000000	99.143091 
3396.000000	99.141219 
3395.000000	99.129523 
3394.000000	99.112926 
3393.000000	99.100579 
3392.000000	99.097304 
3391.000000	99.100306 
3390.000000	99.104221 
3389.000000	99.106867 
3388.000000	99.108306 
3387.000000	99.107256 
3386.000000	99.102399 
3385.000000	99.096250 
3384.000000	99.092950 
3383.000000	99.091286 
3382.000000	99.084000 
3381.000000	99.066278 
3380.000000	99.042495 
3379.000000	99.022484 
3378.000000	99.012529 
3377.000000	99.011033 
3376.000000	99.011000 
3375.000000	99.005218 
3374.000000	98.990868 
3373.000000	98.971400 
3372.000000	98.953609 
3371.000000	98.941943 
3370.000000	98.936231 
3369.000000	98.934731 
3368.000000	98.937057 
3367.000000	98.942978 
3366.000000	98.950076 
3365.000000	98.953925 
3364.000000	98.949727 
3363.000000	98.934200 
3362.000000	98.908871 
3361.000000	98.882131 
3360.000000	98.864032 
3359.000000	98.856289 
3358.000000	98.849591 
3357.000000	98.833388 
3356.000000	98.806616 
3355.000000	98.776653 
3354.000000	98.750014 
3353.000000	98.727513 
3352.000000	98.707291 
3351.000000	98.688922 
3350.000000	98.674178 
3349.000000	98.665462 
3348.000000	98.663015 
3347.000000	98.662332 
3346.000000	98.655774 
3345.000000	98.639270 
3344.000000	98.616892 
3343.000000	98.596588 
3342.000000	98.581571 
3341.000000	98.567426 
3340.000000	98.547078 
3339.000000	98.517053 
3338.000000	98.479462 
3337.000000	98.439786 
3336.000000	98.402745 
3335.000000	98.368988 
3334.000000	98.335361 
3333.000000	98.297972 
3332.000000	98.254188 
3331.000000	98.203106 
3330.000000	98.147920 
3329.000000	98.098247 
3328.000000	98.064697 
3327.000000	98.046910 
3326.000000	98.029975 
3325.000000	97.997143 
3324.000000	97.944415 
3323.000000	97.879196 
3322.000000	97.807765 
3321.000000	97.730859 
3320.000000	97.650902 
3319.000000	97.575820 
3318.000000	97.511521 
3317.000000	97.454511 
3316.000000	97.396130 
3315.000000	97.332544 
3314.000000	97.267514 
3313.000000	97.205703 
3312.000000	97.145810 
3311.000000	97.081455 
3310.000000	97.008565 
3309.000000	96.931274 
3308.000000	96.859101 
3307.000000	96.797175 
3306.000000	96.740112 
3305.000000	96.677404 
3304.000000	96.604740 
3303.000000	96.528512 
3302.000000	96.459266 
3301.000000	96.402420 
3300.000000	96.355428 
3299.000000	96.311871 
3298.000000	96.266853 
3297.000000	96.219326 
3296.000000	96.170782 
3295.000000	96.122427 
3294.000000	96.074049 
3293.000000	96.025369 
3292.000000	95.977231 
3291.000000	95.930540 
3290.000000	95.884802 
3289.000000	95.838755 
3288.000000	95.791671 
3287.000000	95.742604 
3286.000000	95.688767 
3285.000000	95.626442 
3284.000000	95.554540 
3283.000000	95.477201 
3282.000000	95.402684 
3281.000000	95.339031 
3280.000000	95.289181 
3279.000000	95.249357 
3278.000000	95.212605 
3277.000000	95.174174 
3276.000000	95.132929 
3275.000000	95.088374 
3274.000000	95.039202 
3273.000000	94.985920 
3272.000000	94.932181 
3271.000000	94.881321 
3270.000000	94.833207 
3269.000000	94.786385 
3268.000000	94.741370 
3267.000000	94.699074 
3266.000000	94.657638 
3265.000000	94.614395 
3264.000000	94.570943 
3263.000000	94.532984 
3262.000000	94.503959 
3261.000000	94.480454 
3260.000000	94.454068 
3259.000000	94.416453 
3258.000000	94.363273 
3257.000000	94.296511 
3256.000000	94.224101 
3255.000000	94.155069 
3254.000000	94.092981 
3253.000000	94.034530 
3252.000000	93.974636 
3251.000000	93.911345 
3250.000000	93.845235 
3249.000000	93.775981 
3248.000000	93.701631 
3247.000000	93.621009 
3246.000000	93.535515 
3245.000000	93.448199 
3244.000000	93.361547 
3243.000000	93.276135 
3242.000000	93.190638 
3241.000000	93.102436 
3240.000000	93.008713 
3239.000000	92.908605 
3238.000000	92.805320 
3237.000000	92.705109 
3236.000000	92.611951 
3235.000000	92.522898 
3234.000000	92.429998 
3233.000000	92.327142 
3232.000000	92.213792 
3231.000000	92.092551 
3230.000000	91.966345 
3229.000000	91.839162 
3228.000000	91.716059 
3227.000000	91.598944 
3226.000000	91.483682 
3225.000000	91.364352 
3224.000000	91.239513 
3223.000000	91.111059 
3222.000000	90.977311 
3221.000000	90.831133 
3220.000000	90.666958 
3219.000000	90.487693 
3218.000000	90.302517 
3217.000000	90.118549 
3216.000000	89.936009 
3215.000000	89.751001 
3214.000000	89.561501 
3213.000000	89.369906 
3212.000000	89.179981 
3211.000000	88.992124 
3210.000000	88.802518 
3209.000000	88.606688 
3208.000000	88.402584 
3207.000000	88.189737 
3206.000000	87.967263 
3205.000000	87.734796 
3204.000000	87.494928 
3203.000000	87.252308 
3202.000000	87.008914 
3201.000000	86.760853 
3200.000000	86.501405 
3199.000000	86.228384 
3198.000000	85.948276 
3197.000000	85.671308 
3196.000000	85.400467 
3195.000000	85.125554 
3194.000000	84.829841 
3193.000000	84.503733 
3192.000000	84.152204 
3191.000000	83.789769 
3190.000000	83.429518 
3189.000000	83.075782 
3188.000000	82.723852 
3187.000000	82.364558 
3186.000000	81.990855 
3185.000000	81.602850 
3184.000000	81.207464 
3183.000000	80.812812 
3182.000000	80.422117 
3181.000000	80.031869 
3180.000000	79.634907 
3179.000000	79.226452 
3178.000000	78.809420 
3177.000000	78.393941 
3176.000000	77.990044 
3175.000000	77.600581 
3174.000000	77.221850 
3173.000000	76.849653 
3172.000000	76.482891 
3171.000000	76.123209 
3170.000000	75.775144 
3169.000000	75.446265 
3168.000000	75.142512 
3167.000000	74.861569 
3166.000000	74.593970 
3165.000000	74.332486 
3164.000000	74.077876 
3163.000000	73.834360 
3162.000000	73.603050 
3161.000000	73.382366 
3160.000000	73.171793 
3159.000000	72.971596 
3158.000000	72.780706 
3157.000000	72.598716 
3156.000000	72.429399 
3155.000000	72.278835 
3154.000000	72.149395 
3153.000000	72.037663 
3152.000000	71.938786 
3151.000000	71.851109 
3150.000000	71.775859 
3149.000000	71.714061 
3148.000000	71.665778 
3147.000000	71.632614 
3146.000000	71.619680 
3145.000000	71.633266 
3144.000000	71.675437 
3143.000000	71.741354 
3142.000000	71.823060 
3141.000000	71.916044 
3140.000000	72.021311 
3139.000000	72.141145 
3138.000000	72.274266 
3137.000000	72.416232 
3136.000000	72.564327 
3135.000000	72.721082 
3134.000000	72.892157 
3133.000000	73.080280 
3132.000000	73.281557 
3131.000000	73.488674 
3130.000000	73.697885 
3129.000000	73.911493 
3128.000000	74.132523 
3127.000000	74.358234 
3126.000000	74.580787 
3125.000000	74.793795 
3124.000000	74.996170 
3123.000000	75.189915 
3122.000000	75.377314 
3121.000000	75.561795 
3120.000000	75.748734 
3119.000000	75.941823 
3118.000000	76.138309 
3117.000000	76.330013 
3116.000000	76.510360 
3115.000000	76.680048 
3114.000000	76.845719 
3113.000000	77.014108 
3112.000000	77.187729 
3111.000000	77.364687 
3110.000000	77.540702 
3109.000000	77.710981 
3108.000000	77.871730 
3107.000000	78.021769 
3106.000000	78.163375 
3105.000000	78.300421 
3104.000000	78.434367 
3103.000000	78.561886 
3102.000000	78.676991 
3101.000000	78.775643 
3100.000000	78.857862 
3099.000000	78.925800 
3098.000000	78.980914 
3097.000000	79.023555 
3096.000000	79.054621 
3095.000000	79.076803 
3094.000000	79.093643 
3093.000000	79.107104 
3092.000000	79.116093 
3091.000000	79.117890 
3090.000000	79.111559 
3089.000000	79.099695 
3088.000000	79.086249 
3087.000000	79.072458 
3086.000000	79.055010 
3085.000000	79.028353 
3084.000000	78.989422 
3083.000000	78.941106 
3082.000000	78.890958 
3081.000000	78.844955 
3080.000000	78.801589 
3079.000000	78.752986 
3078.000000	78.692382 
3077.000000	78.619811 
3076.000000	78.540427 
3075.000000	78.459396 
3074.000000	78.379699 
3073.000000	78.302535 
3072.000000	78.226715 
3071.000000	78.147812 
3070.000000	78.060445 
3069.000000	77.962410 
3068.000000	77.856065 
3067.000000	77.746136 
3066.000000	77.637001 
3065.000000	77.530863 
3064.000000	77.426552 
3063.000000	77.320904 
3062.000000	77.213738 
3061.000000	77.111337 
3060.000000	77.022165 
3059.000000	76.947925 
3058.000000	76.880655 
3057.000000	76.810318 
3056.000000	76.734791 
3055.000000	76.661124 
3054.000000	76.597300 
3053.000000	76.544318 
3052.000000	76.497123 
3051.000000	76.452451 
3050.000000	76.413473 
3049.000000	76.385228 
3048.000000	76.366905 
3047.000000	76.351638 
3046.000000	76.334142 
3045.000000	76.315544 
3044.000000	76.299429 
3043.000000	76.285557 
3042.000000	76.269563 
3041.000000	76.247426 
3040.000000	76.218578 
3039.000000	76.186030 
3038.000000	76.155127 
3037.000000	76.130721 
3036.000000	76.113298 
3035.000000	76.098282 
3034.000000	76.080303 
3033.000000	76.057405 
3032.000000	76.030570 
3031.000000	76.001377 
3030.000000	75.971969 
3029.000000	75.945327 
3028.000000	75.922832 
3027.000000	75.902131 
3026.000000	75.879127 
3025.000000	75.851201 
3024.000000	75.817057 
3023.000000	75.774951 
3022.000000	75.722934 
3021.000000	75.658758 
3020.000000	75.576400 
3019.000000	75.463357 
3018.000000	75.303371 
3017.000000	75.079617 
3016.000000	74.770413 
3015.000000	74.340945 
3014.000000	73.744634 
3013.000000	72.944352 
3012.000000	71.950005 
3011.000000	70.855120 
3010.000000	69.841635 
3009.000000	69.126745 
3008.000000	68.867409 
3007.000000	69.081546 
3006.000000	69.646445 
3005.000000	70.372466 
3004.000000	71.092828 
3003.000000	71.712270 
3002.000000	72.202997 
3001.000000	72.575452 
3000.000000	72.851025 
2999.000000	73.048850 
2998.000000	73.185037 
2997.000000	73.275558 
2996.000000	73.334827 
2995.000000	73.370832 
2994.000000	73.384950 
2993.000000	73.378167 
2992.000000	73.355396 
2991.000000	73.322580 
2990.000000	73.282147 
2989.000000	73.233235 
2988.000000	73.174295 
2987.000000	73.102479 
2986.000000	73.011081 
2985.000000	72.890280 
2984.000000	72.731269 
2983.000000	72.528457 
2982.000000	72.276503 
2981.000000	71.966186 
2980.000000	71.586046 
2979.000000	71.131500 
2978.000000	70.614197 
2977.000000	70.062124 
2976.000000	69.511186 
2975.000000	68.998442 
2974.000000	68.562794 
2973.000000	68.244678 
2972.000000	68.074584 
2971.000000	68.056576 
2970.000000	68.162968 
2969.000000	68.346687 
2968.000000	68.560722 
2967.000000	68.771584 
2966.000000	68.961811 
2965.000000	69.124949 
2964.000000	69.259203 
2963.000000	69.364161 
2962.000000	69.441267 
2961.000000	69.494298 
2960.000000	69.527430 
2959.000000	69.543977 
2958.000000	69.548656 
2957.000000	69.549454 
2956.000000	69.553982 
2955.000000	69.563604 
2954.000000	69.572820 
2953.000000	69.574518 
2952.000000	69.564515 
2951.000000	69.542252 
2950.000000	69.510492 
2949.000000	69.475254 
2948.000000	69.443622 
2947.000000	69.419592 
2946.000000	69.402094 
2945.000000	69.387077 
2944.000000	69.370682 
2943.000000	69.350764 
2942.000000	69.326933 
2941.000000	69.299743 
2940.000000	69.269452 
2939.000000	69.235484 
2938.000000	69.196943 
2937.000000	69.152342 
2936.000000	69.098330 
2935.000000	69.030751 
2934.000000	68.948748 
2933.000000	68.856325 
2932.000000	68.758019 
2931.000000	68.654376 
2930.000000	68.543482 
2929.000000	68.424866 
2928.000000	68.298943 
2927.000000	68.164136 
2926.000000	68.018412 
2925.000000	67.863330 
2924.000000	67.703142 
2923.000000	67.539929 
2922.000000	67.372919 
2921.000000	67.202717 
2920.000000	67.032781 
2919.000000	66.865982 
2918.000000	66.702729 
2917.000000	66.543447 
2916.000000	66.389741 
2915.000000	66.241095 
2914.000000	66.092480 
2913.000000	65.937749 
2912.000000	65.775170 
2911.000000	65.608388 
2910.000000	65.442265 
2909.000000	65.278832 
2908.000000	65.117271 
2907.000000	64.956938 
2906.000000	64.799340 
2905.000000	64.646823 
2904.000000	64.499912 
2903.000000	64.356991 
2902.000000	64.215561 
2901.000000	64.073712 
2900.000000	63.930709 
2899.000000	63.788961 
2898.000000	63.655262 
2897.000000	63.536278 
2896.000000	63.431386 
2895.000000	63.332329 
2894.000000	63.231597 
2893.000000	63.129071 
2892.000000	63.029076 
2891.000000	62.934340 
2890.000000	62.846036 
2889.000000	62.767444 
2888.000000	62.703592 
2887.000000	62.657401 
2886.000000	62.628399 
2885.000000	62.614081 
2884.000000	62.610119 
2883.000000	62.610563 
2882.000000	62.611032 
2881.000000	62.611748 
2880.000000	62.615211 
2879.000000	62.621347 
2878.000000	62.627168 
2877.000000	62.630542 
2876.000000	62.631582 
2875.000000	62.630375 
2874.000000	62.625995 
2873.000000	62.618414 
2872.000000	62.609637 
2871.000000	62.602308 
2870.000000	62.598073 
2869.000000	62.596993 
2868.000000	62.597430 
2867.000000	62.597189 
2866.000000	62.596538 
2865.000000	62.599849 
2864.000000	62.612606 
2863.000000	62.636629 
2862.000000	62.668893 
2861.000000	62.704369 
2860.000000	62.739513 
2859.000000	62.774509 
2858.000000	62.813451 
2857.000000	62.860331 
2856.000000	62.912859 
2855.000000	62.962100 
2854.000000	63.000639 
2853.000000	63.029557 
2852.000000	63.054141 
2851.000000	63.074251 
2850.000000	63.083361 
2849.000000	63.077393 
2848.000000	63.060358 
2847.000000	63.039348 
2846.000000	63.016770 
2845.000000	62.989720 
2844.000000	62.954980 
2843.000000	62.912078 
2842.000000	62.862228 
2841.000000	62.806763 
2840.000000	62.747197 
2839.000000	62.685299 
2838.000000	62.621695 
2837.000000	62.554374 
2836.000000	62.479419 
2835.000000	62.393806 
2834.000000	62.297352 
2833.000000	62.191989 
2832.000000	62.080357 
2831.000000	61.966158 
2830.000000	61.854583 
2829.000000	61.749875 
2828.000000	61.652267 
2827.000000	61.559354 
2826.000000	61.470950 
2825.000000	61.390664 
2824.000000	61.322272 
2823.000000	61.266959 
2822.000000	61.225382 
2821.000000	61.200382 
2820.000000	61.195938 
2819.000000	61.214410 
2818.000000	61.255463 
2817.000000	61.316153 
2816.000000	61.391453 
2815.000000	61.476747 
2814.000000	61.570897 
2813.000000	61.675231 
2812.000000	61.789052 
2811.000000	61.908542 
2810.000000	62.030942 
2809.000000	62.156728 
2808.000000	62.285731 
2807.000000	62.413884 
2806.000000	62.536633 
2805.000000	62.653776 
2804.000000	62.768412 
2803.000000	62.882498 
2802.000000	62.995929 
2801.000000	63.108637 
2800.000000	63.220706 
2799.000000	63.330844 
2798.000000	63.437134 
2797.000000	63.539430 
2796.000000	63.639878 
2795.000000	63.741772 
2794.000000	63.848889 
2793.000000	63.964201 
2792.000000	64.086796 
2791.000000	64.210610 
2790.000000	64.328382 
2789.000000	64.437092 
2788.000000	64.538782 
2787.000000	64.636903 
2786.000000	64.733201 
2785.000000	64.827401 
2784.000000	64.918258 
2783.000000	65.004748 
2782.000000	65.086655 
2781.000000	65.163633 
2780.000000	65.234147 
2779.000000	65.296981 
2778.000000	65.353669 
2777.000000	65.406791 
2776.000000	65.455246 
2775.000000	65.494295 
2774.000000	65.521762 
2773.000000	65.541179 
2772.000000	65.556855 
2771.000000	65.568956 
2770.000000	65.576241 
2769.000000	65.580689 
2768.000000	65.585781 
2767.000000	65.592444 
2766.000000	65.600481 
2765.000000	65.612118 
2764.000000	65.629710 
2763.000000	65.650800 
2762.000000	65.669726 
2761.000000	65.684178 
2760.000000	65.696825 
2759.000000	65.710879 
2758.000000	65.727984 
2757.000000	65.750826 
2756.000000	65.783783 
2755.000000	65.829199 
2754.000000	65.885145 
2753.000000	65.947800 
2752.000000	66.014230 
2751.000000	66.082515 
2750.000000	66.151269 
2749.000000	66.219697 
2748.000000	66.286579 
2747.000000	66.349182 
2746.000000	66.405136 
2745.000000	66.455362 
2744.000000	66.503126 
2743.000000	66.550121 
2742.000000	66.595584 
2741.000000	66.638990 
2740.000000	66.680695 
2739.000000	66.719241 
2738.000000	66.750764 
2737.000000	66.772482 
2736.000000	66.785003 
2735.000000	66.790210 
2734.000000	66.788831 
2733.000000	66.781257 
2732.000000	66.768763 
2731.000000	66.752096 
2730.000000	66.729877 
2729.000000	66.699992 
2728.000000	66.661949 
2727.000000	66.616744 
2726.000000	66.565079 
2725.000000	66.507139 
2724.000000	66.444043 
2723.000000	66.378214 
2722.000000	66.311794 
2721.000000	66.245361 
2720.000000	66.179123 
2719.000000	66.115121 
2718.000000	66.056764 
2717.000000	66.005113 
2716.000000	65.956849 
2715.000000	65.908290 
2714.000000	65.861433 
2713.000000	65.823372 
2712.000000	65.798464 
2711.000000	65.782948 
2710.000000	65.768908 
2709.000000	65.752380 
2708.000000	65.736422 
2707.000000	65.727936 
2706.000000	65.732890 
2705.000000	65.752429 
2704.000000	65.780777 
2703.000000	65.807900 
2702.000000	65.827237 
2701.000000	65.841450 
2700.000000	65.859160 
2699.000000	65.886334 
2698.000000	65.922328 
2697.000000	65.963432 
2696.000000	66.007663 
2695.000000	66.055880 
2694.000000	66.110571 
2693.000000	66.174802 
2692.000000	66.251158 
2691.000000	66.340577 
2690.000000	66.442354 
2689.000000	66.555200 
2688.000000	66.677678 
2687.000000	66.807909 
2686.000000	66.944025 
2685.000000	67.085022 
2684.000000	67.230110 
2683.000000	67.376899 
2682.000000	67.521442 
2681.000000	67.661157 
2680.000000	67.797398 
2679.000000	67.934054 
2678.000000	68.073013 
2677.000000	68.211187 
2676.000000	68.342492 
2675.000000	68.462865 
2674.000000	68.572889 
2673.000000	68.675468 
2672.000000	68.771910 
2671.000000	68.861151 
2670.000000	68.942111 
2669.000000	69.015328 
2668.000000	69.082189 
2667.000000	69.143610 
2666.000000	69.199538 
2665.000000	69.248698 
2664.000000	69.288896 
2663.000000	69.318918 
2662.000000	69.340470 
2661.000000	69.357195 
2660.000000	69.371515 
2659.000000	69.383321 
2658.000000	69.391292 
2657.000000	69.393567 
2656.000000	69.386820 
2655.000000	69.366629 
2654.000000	69.329879 
2653.000000	69.276227 
2652.000000	69.207696 
2651.000000	69.128395 
2650.000000	69.043473 
2649.000000	68.954708 
2648.000000	68.856554 
2647.000000	68.740066 
2646.000000	68.602357 
2645.000000	68.449663 
2644.000000	68.290399 
2643.000000	68.128739 
2642.000000	67.965831 
2641.000000	67.801989 
2640.000000	67.634199 
2639.000000	67.455930 
2638.000000	67.264476 
2637.000000	67.066096 
2636.000000	66.869465 
2635.000000	66.676033 
2634.000000	66.481150 
2633.000000	66.283033 
2632.000000	66.085997 
2631.000000	65.895338 
2630.000000	65.712924 
2629.000000	65.537778 
2628.000000	65.368452 
2627.000000	65.205649 
2626.000000	65.054571 
2625.000000	64.922437 
2624.000000	64.810499 
2623.000000	64.710645 
2622.000000	64.613868 
2621.000000	64.520411 
2620.000000	64.437339 
2619.000000	64.367683 
2618.000000	64.307184 
2617.000000	64.251902 
2616.000000	64.204123 
2615.000000	64.169000 
2614.000000	64.148306 
2613.000000	64.138990 
2612.000000	64.136285 
2611.000000	64.137618 
2610.000000	64.144555 
2609.000000	64.160710 
2608.000000	64.186777 
2607.000000	64.218736 
2606.000000	64.252620 
2605.000000	64.289808 
2604.000000	64.335400 
2603.000000	64.391967 
2602.000000	64.456540 
2601.000000	64.522662 
2600.000000	64.583629 
2599.000000	64.635376 
2598.000000	64.679325 
2597.000000	64.722325 
2596.000000	64.771248 
2595.000000	64.826788 
2594.000000	64.883464 
2593.000000	64.935557 
2592.000000	64.982336 
2591.000000	65.028066 
2590.000000	65.077587 
2589.000000	65.131189 
2588.000000	65.183748 
2587.000000	65.230595 
2586.000000	65.274598 
2585.000000	65.325055 
2584.000000	65.388576 
2583.000000	65.463418 
2582.000000	65.543972 
2581.000000	65.627993 
2580.000000	65.717556 
2579.000000	65.815626 
2578.000000	65.924312 
2577.000000	66.044368 
2576.000000	66.173548 
2575.000000	66.306632 
2574.000000	66.439145 
2573.000000	66.569678 
2572.000000	66.696837 
2571.000000	66.816191 
2570.000000	66.923430 
2569.000000	67.019870 
2568.000000	67.112401 
2567.000000	67.207929 
2566.000000	67.308357 
2565.000000	67.409008 
2564.000000	67.500622 
2563.000000	67.575854 
2562.000000	67.637157 
2561.000000	67.696913 
2560.000000	67.766489 
2559.000000	67.845280 
2558.000000	67.922196 
2557.000000	67.986367 
2556.000000	68.033765 
2555.000000	68.065362 
2554.000000	68.083903 
2553.000000	68.093785 
2552.000000	68.100391 
2551.000000	68.106379 
2550.000000	68.109029 
2549.000000	68.102463 
2548.000000	68.082518 
2547.000000	68.049480 
2546.000000	68.007071 
2545.000000	67.959740 
2544.000000	67.911030 
2543.000000	67.863633 
2542.000000	67.819175 
2541.000000	67.776665 
2540.000000	67.732212 
2539.000000	67.682364 
2538.000000	67.627449 
2537.000000	67.569599 
2536.000000	67.507628 
2535.000000	67.436614 
2534.000000	67.353668 
2533.000000	67.262432 
2532.000000	67.170788 
2531.000000	67.084894 
2530.000000	67.005477 
2529.000000	66.928823 
2528.000000	66.851764 
2527.000000	66.776923 
2526.000000	66.711932 
2525.000000	66.661472 
2524.000000	66.621179 
2523.000000	66.581873 
2522.000000	66.539094 
2521.000000	66.496749 
2520.000000	66.463625 
2519.000000	66.448917 
2518.000000	66.457735 
2517.000000	66.485952 
2516.000000	66.521618 
2515.000000	66.556996 
2514.000000	66.597544 
2513.000000	66.653660 
2512.000000	66.726057 
2511.000000	66.806504 
2510.000000	66.891172 
2509.000000	66.983760 
2508.000000	67.084535 
2507.000000	67.185783 
2506.000000	67.281818 
2505.000000	67.376136 
2504.000000	67.474392 
2503.000000	67.576202 
2502.000000	67.678247 
2501.000000	67.780460 
2500.000000	67.884782 
2499.000000	67.991602 
2498.000000	68.101114 
2497.000000	68.214490 
2496.000000	68.330114 
2495.000000	68.441991 
2494.000000	68.545809 
2493.000000	68.644892 
2492.000000	68.747731 
2491.000000	68.860987 
2490.000000	68.985182 
2489.000000	69.114114 
2488.000000	69.238290 
2487.000000	69.353192 
2486.000000	69.465008 
2485.000000	69.583593 
2484.000000	69.708995 
2483.000000	69.830816 
2482.000000	69.942717 
2481.000000	70.051192 
2480.000000	70.166412 
2479.000000	70.290056 
2478.000000	70.416528 
2477.000000	70.540865 
2476.000000	70.659866 
2475.000000	70.769316 
2474.000000	70.866779 
2473.000000	70.956246 
2472.000000	71.045353 
2471.000000	71.138347 
2470.000000	71.234520 
2469.000000	71.331673 
2468.000000	71.427415 
2467.000000	71.517939 
2466.000000	71.598893 
2465.000000	71.667919 
2464.000000	71.725321 
2463.000000	71.773565 
2462.000000	71.817558 
2461.000000	71.863747 
2460.000000	71.916878 
2459.000000	71.977894 
2458.000000	72.044817 
2457.000000	72.113671 
2456.000000	72.178809 
2455.000000	72.236117 
2454.000000	72.287719 
2453.000000	72.341424 
2452.000000	72.404628 
2451.000000	72.480307 
2450.000000	72.567590 
2449.000000	72.661734 
2448.000000	72.753636 
2447.000000	72.834897 
2446.000000	72.905176 
2445.000000	72.970862 
2444.000000	73.036316 
2443.000000	73.101652 
2442.000000	73.169264 
2441.000000	73.244731 
2440.000000	73.327636 
2439.000000	73.407732 
2438.000000	73.475120 
2437.000000	73.530302 
2436.000000	73.580714 
2435.000000	73.631542 
2434.000000	73.683538 
2433.000000	73.735693 
2432.000000	73.786015 
2431.000000	73.832737 
2430.000000	73.877518 
2429.000000	73.923892 
2428.000000	73.970736 
2427.000000	74.012719 
2426.000000	74.050205 
2425.000000	74.092650 
2424.000000	74.147580 
2423.000000	74.211534 
2422.000000	74.277133 
2421.000000	74.344179 
2420.000000	74.417761 
2419.000000	74.499412 
2418.000000	74.586474 
2417.000000	74.677518 
2416.000000	74.772666 
2415.000000	74.870830 
2414.000000	74.972082 
2413.000000	75.080826 
2412.000000	75.201251 
2411.000000	75.330880 
2410.000000	75.463398 
2409.000000	75.597050 
2408.000000	75.736102 
2407.000000	75.884421 
2406.000000	76.040930 
2405.000000	76.201047 
2404.000000	76.360465 
2403.000000	76.518391 
2402.000000	76.678055 
2401.000000	76.841966 
2400.000000	77.006469 
2399.000000	77.165694 
2398.000000	77.322723 
2397.000000	77.490687 
2396.000000	77.677966 
2395.000000	77.876479 
2394.000000	78.069846 
2393.000000	78.249782 
2392.000000	78.419311 
2391.000000	78.583969 
2390.000000	78.747215 
2389.000000	78.913132 
2388.000000	79.086457 
2387.000000	79.268744 
2386.000000	79.458619 
2385.000000	79.655734 
2384.000000	79.859980 
2383.000000	80.066424 
2382.000000	80.265545 
2381.000000	80.450003 
2380.000000	80.618269 
2379.000000	80.770734 
2378.000000	80.904633 
2377.000000	81.015552 
2376.000000	81.101662 
2375.000000	81.168198 
2374.000000	81.229474 
2373.000000	81.302110 
2372.000000	81.391030 
2371.000000	81.485719 
2370.000000	81.575462 
2369.000000	81.663070 
2368.000000	81.754453 
2367.000000	81.842464 
2366.000000	81.915937 
2365.000000	81.986629 
2364.000000	82.086787 
2363.000000	82.220725 
2362.000000	82.355835 
2361.000000	82.466257 
2360.000000	82.549687 
2359.000000	82.615606 
2358.000000	82.660250 
2357.000000	82.688662 
2356.000000	82.737313 
2355.000000	82.836484 
2354.000000	82.971336 
2353.000000	83.083906 
2352.000000	83.144926 
2351.000000	83.182598 
2350.000000	83.239811 
2349.000000	83.345087 
2348.000000	83.480168 
2347.000000	83.600612 
2346.000000	83.664451 
2345.000000	83.676375 
2344.000000	83.681645 
2343.000000	83.695663 
2342.000000	83.713133 
2341.000000	83.730788 
2340.000000	83.764625 
2339.000000	83.823200 
2338.000000	83.897879 
2337.000000	83.970920 
2336.000000	84.039103 
2335.000000	84.105822 
2334.000000	84.178083 
2333.000000	84.246861 
2332.000000	84.301136 
2331.000000	84.334437 
2330.000000	84.342517 
2329.000000	84.336323 
2328.000000	84.315681 
2327.000000	84.284089 
2326.000000	84.247677 
2325.000000	84.225663 
2324.000000	84.239139 
2323.000000	84.276776 
2322.000000	84.310974 
2321.000000	84.318815 
2320.000000	84.314218 
2319.000000	84.322484 
2318.000000	84.364094 
2317.000000	84.441110 
2316.000000	84.541196 
2315.000000	84.641367 
2314.000000	84.720765 
2313.000000	84.773553 
2312.000000	84.805885 
2311.000000	84.826076 
2310.000000	84.838124 
2309.000000	84.846884 
2308.000000	84.856482 
2307.000000	84.867997 
2306.000000	84.882580 
2305.000000	84.903561 
2304.000000	84.931353 
2303.000000	84.957505 
2302.000000	84.975537 
2301.000000	84.992499 
2300.000000	85.019676 
2299.000000	85.054575 
2298.000000	85.080387 
2297.000000	85.087766 
2296.000000	85.082290 
2295.000000	85.075408 
2294.000000	85.071692 
2293.000000	85.070721 
2292.000000	85.067754 
2291.000000	85.053510 
2290.000000	85.020702 
2289.000000	84.975685 
2288.000000	84.935906 
2287.000000	84.912967 
2286.000000	84.903902 
2285.000000	84.898413 
2284.000000	84.888211 
2283.000000	84.869410 
2282.000000	84.845814 
2281.000000	84.827860 
2280.000000	84.819382 
2279.000000	84.806481 
2278.000000	84.774976 
2277.000000	84.737263 
2276.000000	84.724374 
2275.000000	84.746831 
2274.000000	84.779934 
2273.000000	84.795874 
2272.000000	84.794343 
2271.000000	84.792380 
2270.000000	84.798975 
2269.000000	84.813339 
2268.000000	84.837060 
2267.000000	84.872099 
2266.000000	84.911371 
2265.000000	84.945176 
2264.000000	84.974859 
2263.000000	85.011942 
2262.000000	85.063197 
2261.000000	85.122241 
2260.000000	85.175997 
2259.000000	85.216736 
2258.000000	85.251066 
2257.000000	85.295861 
2256.000000	85.361407 
2255.000000	85.437829 
2254.000000	85.504311 
2253.000000	85.550699 
2252.000000	85.582416 
2251.000000	85.607050 
2250.000000	85.627138 
2249.000000	85.647544 
2248.000000	85.676095 
2247.000000	85.712731 
2246.000000	85.746069 
2245.000000	85.763249 
2244.000000	85.758083 
2243.000000	85.732273 
2242.000000	85.698946 
2241.000000	85.681637 
2240.000000	85.695335 
2239.000000	85.728562 
2238.000000	85.756865 
2237.000000	85.771085 
2236.000000	85.776948 
2235.000000	85.771297 
2234.000000	85.742783 
2233.000000	85.698969 
2232.000000	85.667670 
2231.000000	85.661838 
2230.000000	85.663784 
2229.000000	85.654443 
2228.000000	85.638946 
2227.000000	85.630031 
2226.000000	85.623621 
2225.000000	85.607722 
2224.000000	85.584575 
2223.000000	85.568994 
2222.000000	85.569940 
2221.000000	85.581960 
2220.000000	85.588745 
2219.000000	85.571732 
2218.000000	85.525603 
2217.000000	85.469564 
2216.000000	85.431464 
2215.000000	85.416643 
2214.000000	85.405262 
2213.000000	85.383590 
2212.000000	85.362497 
2211.000000	85.359085 
2210.000000	85.374993 
2209.000000	85.399966 
2208.000000	85.423102 
2207.000000	85.432900 
2206.000000	85.418809 
2205.000000	85.382744 
2204.000000	85.342660 
2203.000000	85.321433 
2202.000000	85.338342 
2201.000000	85.403711 
2200.000000	85.502572 
2199.000000	85.586578 
2198.000000	85.607482 
2197.000000	85.567517 
2196.000000	85.518371 
2195.000000	85.503423 
2194.000000	85.519665 
2193.000000	85.540638 
2192.000000	85.553968 
2191.000000	85.566632 
2190.000000	85.592777 
2189.000000	85.646584 
2188.000000	85.728497 
2187.000000	85.809863 
2186.000000	85.852442 
2185.000000	85.855875 
2184.000000	85.865109 
2183.000000	85.914463 
2182.000000	85.983009 
2181.000000	86.022693 
2180.000000	86.014562 
2179.000000	85.979227 
2178.000000	85.945713 
2177.000000	85.925823 
2176.000000	85.907554 
2175.000000	85.863712 
2174.000000	85.777842 
2173.000000	85.667053 
2172.000000	85.567203 
2171.000000	85.494188 
2170.000000	85.434490 
2169.000000	85.371339 
2168.000000	85.299530 
2167.000000	85.214810 
2166.000000	85.114721 
2165.000000	85.015611 
2164.000000	84.941668 
2163.000000	84.890920 
2162.000000	84.843003 
2161.000000	84.809179 
2160.000000	84.836065 
2159.000000	84.932932 
2158.000000	85.031507 
2157.000000	85.052959 
2156.000000	84.980595 
2155.000000	84.845887 
2154.000000	84.685528 
2153.000000	84.529328 
2152.000000	84.395991 
2151.000000	84.282218 
2150.000000	84.172507 
2149.000000	84.066918 
2148.000000	83.981320 
2147.000000	83.916886 
2146.000000	83.852847 
2145.000000	83.776801 
2144.000000	83.698732 
2143.000000	83.624730 
2142.000000	83.539266 
2141.000000	83.428612 
2140.000000	83.306298 
2139.000000	83.201149 
2138.000000	83.129955 
2137.000000	83.090199 
2136.000000	83.068408 
2135.000000	83.046790 
2134.000000	83.010043 
2133.000000	82.954499 
2132.000000	82.887400 
2131.000000	82.815355 
2130.000000	82.739486 
2129.000000	82.661410 
2128.000000	82.585399 
2127.000000	82.514118 
2126.000000	82.450462 
2125.000000	82.402980 
2124.000000	82.378705 
2123.000000	82.368956 
2122.000000	82.353234 
2121.000000	82.322078 
2120.000000	82.287887 
2119.000000	82.267711 
2118.000000	82.262006 
2117.000000	82.256648 
2116.000000	82.242950 
2115.000000	82.230900 
2114.000000	82.242203 
2113.000000	82.290169 
2112.000000	82.365415 
2111.000000	82.443299 
2110.000000	82.507279 
2109.000000	82.562585 
2108.000000	82.626399 
2107.000000	82.710874 
2106.000000	82.818447 
2105.000000	82.943351 
2104.000000	83.069154 
2103.000000	83.174322 
2102.000000	83.253766 
2101.000000	83.330327 
2100.000000	83.431695 
2099.000000	83.559867 
2098.000000	83.696676 
2097.000000	83.833608 
2096.000000	83.976386 
2095.000000	84.120087 
2094.000000	84.242332 
2093.000000	84.329625 
2092.000000	84.394077 
2091.000000	84.456156 
2090.000000	84.524678 
2089.000000	84.601415 
2088.000000	84.692572 
2087.000000	84.804288 
2086.000000	84.932297 
2085.000000	85.063336 
2084.000000	85.184976 
2083.000000	85.294361 
2082.000000	85.403378 
2081.000000	85.532904 
2080.000000	85.690961 
2079.000000	85.858418 
2078.000000	86.010148 
2077.000000	86.148657 
2076.000000	86.297750 
2075.000000	86.461643 
2074.000000	86.615045 
2073.000000	86.742576 
2072.000000	86.863722 
2071.000000	87.002364 
2070.000000	87.150661 
2069.000000	87.282199 
2068.000000	87.388189 
2067.000000	87.483426 
2066.000000	87.585500 
2065.000000	87.700748 
2064.000000	87.820628 
2063.000000	87.922618 
2062.000000	87.987112 
2061.000000	88.022346 
2060.000000	88.058346 
2059.000000	88.109281 
2058.000000	88.161953 
2057.000000	88.209392 
2056.000000	88.268147 
2055.000000	88.345177 
2054.000000	88.414657 
2053.000000	88.454288 
2052.000000	88.485628 
2051.000000	88.551883 
2050.000000	88.667212 
2049.000000	88.808716 
2048.000000	88.949328 
2047.000000	89.074241 
2046.000000	89.172267 
2045.000000	89.241739 
2044.000000	89.301631 
2043.000000	89.371523 
2042.000000	89.445990 
2041.000000	89.508669 
2040.000000	89.560202 
2039.000000	89.609841 
2038.000000	89.653431 
2037.000000	89.685691 
2036.000000	89.721863 
2035.000000	89.780210 
2034.000000	89.852193 
2033.000000	89.914579 
2032.000000	89.961756 
2031.000000	90.005493 
2030.000000	90.057675 
2029.000000	90.132393 
2028.000000	90.243918 
2027.000000	90.380086 
2026.000000	90.498041 
2025.000000	90.571778 
2024.000000	90.627887 
2023.000000	90.710741 
2022.000000	90.830312 
2021.000000	90.964665 
2020.000000	91.089702 
2019.000000	91.182273 
2018.000000	91.218951 
2017.000000	91.206596 
2016.000000	91.196624 
2015.000000	91.237291 
2014.000000	91.328846 
2013.000000	91.444003 
2012.000000	91.565343 
2011.000000	91.681125 
2010.000000	91.774454 
2009.000000	91.852138 
2008.000000	91.961076 
2007.000000	92.134550 
2006.000000	92.337288 
2005.000000	92.500659 
2004.000000	92.598821 
2003.000000	92.658040 
2002.000000	92.708748 
2001.000000	92.762001 
2000.000000	92.818539 
1999.000000	92.871339 
1998.000000	92.905845 
1997.000000	92.917115 
1996.000000	92.920128 
1995.000000	92.932820 
1994.000000	92.964958 
1993.000000	93.031911 
1992.000000	93.150578 
1991.000000	93.300832 
1990.000000	93.418745 
1989.000000	93.456007 
1988.000000	93.428890 
1987.000000	93.388737 
1986.000000	93.363552 
1985.000000	93.349642 
1984.000000	93.339848 
1983.000000	93.334060 
1982.000000	93.337442 
1981.000000	93.369410 
1980.000000	93.455108 
1979.000000	93.586623 
1978.000000	93.715618 
1977.000000	93.811297 
1976.000000	93.897630 
1975.000000	94.004255 
1974.000000	94.119320 
1973.000000	94.219756 
1972.000000	94.305994 
1971.000000	94.374353 
1970.000000	94.394852 
1969.000000	94.356388 
1968.000000	94.303290 
1967.000000	94.285859 
1966.000000	94.300396 
1965.000000	94.318865 
1964.000000	94.348263 
1963.000000	94.415815 
1962.000000	94.516249 
1961.000000	94.612782 
1960.000000	94.681096 
1959.000000	94.722767 
1958.000000	94.745969 
1957.000000	94.761491 
1956.000000	94.786192 
1955.000000	94.825135 
1954.000000	94.858472 
1953.000000	94.863282 
1952.000000	94.839415 
1951.000000	94.801792 
1950.000000	94.763465 
1949.000000	94.739372 
1948.000000	94.744918 
1947.000000	94.774314 
1946.000000	94.801112 
1945.000000	94.815101 
1944.000000	94.836830 
1943.000000	94.878678 
1942.000000	94.916968 
1941.000000	94.929359 
1940.000000	94.930764 
1939.000000	94.943419 
1938.000000	94.960895 
1937.000000	94.967597 
1936.000000	94.973390 
1935.000000	95.001908 
1934.000000	95.054381 
1933.000000	95.108395 
1932.000000	95.146370 
1931.000000	95.166360 
1930.000000	95.173837 
1929.000000	95.182165 
1928.000000	95.208596 
1927.000000	95.254004 
1926.000000	95.298382 
1925.000000	95.328258 
1924.000000	95.354950 
1923.000000	95.390254 
1922.000000	95.424384 
1921.000000	95.450146 
1920.000000	95.485068 
1919.000000	95.546382 
1918.000000	95.618171 
1917.000000	95.669340 
1916.000000	95.696026 
1915.000000	95.713443 
1914.000000	95.724205 
1913.000000	95.724917 
1912.000000	95.727323 
1911.000000	95.747837 
1910.000000	95.782795 
1909.000000	95.815875 
1908.000000	95.843079 
1907.000000	95.871134 
1906.000000	95.898028 
1905.000000	95.914667 
1904.000000	95.921657 
1903.000000	95.927468 
1902.000000	95.936025 
1901.000000	95.946933 
1900.000000	95.957841 
1899.000000	95.961435 
1898.000000	95.953370 
1897.000000	95.948038 
1896.000000	95.969053 
1895.000000	96.013430 
1894.000000	96.047225 
1893.000000	96.050933 
1892.000000	96.043559 
1891.000000	96.049455 
1890.000000	96.064557 
1889.000000	96.071101 
1888.000000	96.069210 
1887.000000	96.069736 
1886.000000	96.072263 
1885.000000	96.072290 
1884.000000	96.072700 
1883.000000	96.072281 
1882.000000	96.060476 
1881.000000	96.037843 
1880.000000	96.021701 
1879.000000	96.019358 
1878.000000	96.017126 
1877.000000	96.007664 
1876.000000	96.006286 
1875.000000	96.023612 
1874.000000	96.042172 
1873.000000	96.039905 
1872.000000	96.018247 
1871.000000	95.990394 
1870.000000	95.961727 
1869.000000	95.939453 
1868.000000	95.940992 
1867.000000	95.969258 
1866.000000	95.999298 
1865.000000	96.008998 
1864.000000	96.003942 
1863.000000	95.997743 
1862.000000	95.986081 
1861.000000	95.958957 
1860.000000	95.924267 
1859.000000	95.897183 
1858.000000	95.878577 
1857.000000	95.862409 
1856.000000	95.849327 
1855.000000	95.837054 
1854.000000	95.813696 
1853.000000	95.777320 
1852.000000	95.743806 
1851.000000	95.721906 
1850.000000	95.701319 
1849.000000	95.676065 
1848.000000	95.657942 
1847.000000	95.651162 
1846.000000	95.635128 
1845.000000	95.592147 
1844.000000	95.535827 
1843.000000	95.487431 
1842.000000	95.445657 
1841.000000	95.400263 
1840.000000	95.352455 
1839.000000	95.310001 
1838.000000	95.273343 
1837.000000	95.240354 
1836.000000	95.216262 
1835.000000	95.203182 
1834.000000	95.192234 
1833.000000	95.177271 
1832.000000	95.163954 
1831.000000	95.160394 
1830.000000	95.164939 
1829.000000	95.171746 
1828.000000	95.185766 
1827.000000	95.212057 
1826.000000	95.242041 
1825.000000	95.267518 
1824.000000	95.293374 
1823.000000	95.325037 
1822.000000	95.353913 
1821.000000	95.373533 
1820.000000	95.398707 
1819.000000	95.448127 
1818.000000	95.512586 
1817.000000	95.560714 
1816.000000	95.575352 
1815.000000	95.563445 
1814.000000	95.538323 
1813.000000	95.512484 
1812.000000	95.501007 
1811.000000	95.510110 
1810.000000	95.522334 
1809.000000	95.518019 
1808.000000	95.504558 
1807.000000	95.499249 
1806.000000	95.497405 
1805.000000	95.481454 
1804.000000	95.452166 
1803.000000	95.430059 
1802.000000	95.432192 
1801.000000	95.460932 
1800.000000	95.510008 
1799.000000	95.565686 
1798.000000	95.605919 
1797.000000	95.619699 
1796.000000	95.619930 
1795.000000	95.622067 
1794.000000	95.624823 
1793.000000	95.624695 
1792.000000	95.633169 
1791.000000	95.656479 
1790.000000	95.676678 
1789.000000	95.675666 
1788.000000	95.659077 
1787.000000	95.645712 
1786.000000	95.643128 
1785.000000	95.645687 
1784.000000	95.650298 
1783.000000	95.654744 
1782.000000	95.649979 
1781.000000	95.630389 
1780.000000	95.602856 
1779.000000	95.574251 
1778.000000	95.538678 
1777.000000	95.492079 
1776.000000	95.443975 
1775.000000	95.400997 
1774.000000	95.356224 
1773.000000	95.306837 
1772.000000	95.261293 
1771.000000	95.220807 
1770.000000	95.175476 
1769.000000	95.118691 
1768.000000	95.058132 
1767.000000	95.003294 
1766.000000	94.945845 
1765.000000	94.868079 
1764.000000	94.763880 
1763.000000	94.647478 
1762.000000	94.541446 
1761.000000	94.456825 
1760.000000	94.391545 
1759.000000	94.332879 
1758.000000	94.260206 
1757.000000	94.165850 
1756.000000	94.061277 
1755.000000	93.957860 
1754.000000	93.850335 
1753.000000	93.730785 
1752.000000	93.614424 
1751.000000	93.529105 
1750.000000	93.477464 
1749.000000	93.436044 
1748.000000	93.386089 
1747.000000	93.322306 
1746.000000	93.249998 
1745.000000	93.184176 
1744.000000	93.142565 
1743.000000	93.129021 
1742.000000	93.127820 
1741.000000	93.125999 
1740.000000	93.135443 
1739.000000	93.172527 
1738.000000	93.233121 
1737.000000	93.310947 
1736.000000	93.423810 
1735.000000	93.613173 
1734.000000	93.867808 
1733.000000	94.094487 
1732.000000	94.252771 
1731.000000	94.375415 
1730.000000	94.486881 
1729.000000	94.603599 
1728.000000	94.737304 
1727.000000	94.886189 
1726.000000	95.031507 
1725.000000	95.157541 
1724.000000	95.263144 
1723.000000	95.349710 
1722.000000	95.409180 
1721.000000	95.436771 
1720.000000	95.439626 
1719.000000	95.429394 
1718.000000	95.408279 
1717.000000	95.372066 
1716.000000	95.343461 
1715.000000	95.346664 
1714.000000	95.361626 
1713.000000	95.363743 
1712.000000	95.361736 
1711.000000	95.370391 
1710.000000	95.381268 
1709.000000	95.380966 
1708.000000	95.375384 
1707.000000	95.376574 
1706.000000	95.378755 
1705.000000	95.368998 
1704.000000	95.361464 
1703.000000	95.374272 
1702.000000	95.395260 
1701.000000	95.407623 
1700.000000	95.416392 
1699.000000	95.431966 
1698.000000	95.445225 
1697.000000	95.439152 
1696.000000	95.427242 
1695.000000	95.430526 
1694.000000	95.440248 
1693.000000	95.444417 
1692.000000	95.443219 
1691.000000	95.444121 
1690.000000	95.445289 
1689.000000	95.441843 
1688.000000	95.439867 
1687.000000	95.442817 
1686.000000	95.436092 
1685.000000	95.424195 
1684.000000	95.433500 
1683.000000	95.439515 
1682.000000	95.416222 
1681.000000	95.379028 
1680.000000	95.343664 
1679.000000	95.314848 
1678.000000	95.272616 
1677.000000	95.200726 
1676.000000	95.110033 
1675.000000	95.020701 
1674.000000	94.932188 
1673.000000	94.839655 
1672.000000	94.744281 
1671.000000	94.637941 
1670.000000	94.498710 
1669.000000	94.320293 
1668.000000	94.133995 
1667.000000	93.966756 
1666.000000	93.803762 
1665.000000	93.614758 
1664.000000	93.396752 
1663.000000	93.168737 
1662.000000	92.934158 
1661.000000	92.690089 
1660.000000	92.446487 
1659.000000	92.209536 
1658.000000	91.970856 
1657.000000	91.733110 
1656.000000	91.503401 
1655.000000	91.260068 
1654.000000	90.949980 
1653.000000	90.558400 
1652.000000	90.168831 
1651.000000	89.875194 
1650.000000	89.639885 
1649.000000	89.356315 
1648.000000	88.989693 
1647.000000	88.577007 
1646.000000	88.161210 
1645.000000	87.748211 
1644.000000	87.353857 
1643.000000	86.976847 
1642.000000	86.583163 
1641.000000	86.152131 
1640.000000	85.719080 
1639.000000	85.322781 
1638.000000	84.924702 
1637.000000	84.435026 
1636.000000	83.839292 
1635.000000	83.230652 
1634.000000	82.678468 
1633.000000	82.167619 
1632.000000	81.667393 
1631.000000	81.157589 
1630.000000	80.597525 
1629.000000	79.947397 
1628.000000	79.228463 
1627.000000	78.494850 
1626.000000	77.733660 
1625.000000	76.861791 
1624.000000	75.827908 
1623.000000	74.675677 
1622.000000	73.489081 
1621.000000	72.315715 
1620.000000	71.152482 
1619.000000	69.949893 
1618.000000	68.621409 
1617.000000	67.164583 
1616.000000	65.787670 
1615.000000	64.717553 
1614.000000	63.957644 
1613.000000	63.398771 
1612.000000	63.024522 
1611.000000	62.914079 
1610.000000	63.102271 
1609.000000	63.525914 
1608.000000	64.115562 
1607.000000	64.831657 
1606.000000	65.610864 
1605.000000	66.372599 
1604.000000	67.078970 
1603.000000	67.726823 
1602.000000	68.290033 
1601.000000	68.725005 
1600.000000	69.022131 
1599.000000	69.199870 
1598.000000	69.257187 
1597.000000	69.173329 
1596.000000	68.947237 
1595.000000	68.597308 
1594.000000	68.124746 
1593.000000	67.513496 
1592.000000	66.763421 
1591.000000	65.893325 
1590.000000	64.919510 
1589.000000	63.863768 
1588.000000	62.778220 
1587.000000	61.730666 
1586.000000	60.761632 
1585.000000	59.881828 
1584.000000	59.107195 
1583.000000	58.459444 
1582.000000	57.929425 
1581.000000	57.478252 
1580.000000	57.081316 
1579.000000	56.730718 
1578.000000	56.394593 
1577.000000	56.022280 
1576.000000	55.623319 
1575.000000	55.272565 
1574.000000	54.997904 
1573.000000	54.754790 
1572.000000	54.507798 
1571.000000	54.271055 
1570.000000	54.066514 
1569.000000	53.882782 
1568.000000	53.713576 
1567.000000	53.586052 
1566.000000	53.507904 
1565.000000	53.447128 
1564.000000	53.383680 
1563.000000	53.336563 
1562.000000	53.320927 
1561.000000	53.318803 
1560.000000	53.336355 
1559.000000	53.434624 
1558.000000	53.564960 
1557.000000	53.637866 
1556.000000	53.693147 
1555.000000	53.797736 
1554.000000	53.972187 
1553.000000	54.169704 
1552.000000	54.364663 
1551.000000	54.591449 
1550.000000	54.873286 
1549.000000	55.170916 
1548.000000	55.450314 
1547.000000	55.737904 
1546.000000	56.068104 
1545.000000	56.429156 
1544.000000	56.791142 
1543.000000	57.157076 
1542.000000	57.542408 
1541.000000	57.942283 
1540.000000	58.350437 
1539.000000	58.733755 
1538.000000	59.035970 
1537.000000	59.241532 
1536.000000	59.383812 
1535.000000	59.523220 
1534.000000	59.689689 
1533.000000	59.832614 
1532.000000	59.891408 
1531.000000	59.876254 
1530.000000	59.808941 
1529.000000	59.681377 
1528.000000	59.492088 
1527.000000	59.260079 
1526.000000	58.988270 
1525.000000	58.646654 
1524.000000	58.201179 
1523.000000	57.623363 
1522.000000	56.898926 
1521.000000	56.074463 
1520.000000	55.223450 
1519.000000	54.328320 
1518.000000	53.285389 
1517.000000	52.054223 
1516.000000	50.740651 
1515.000000	49.453382 
1514.000000	48.161590 
1513.000000	46.789012 
1512.000000	45.354260 
1511.000000	43.951405 
1510.000000	42.613992 
1509.000000	41.252197 
1508.000000	39.704070 
1507.000000	37.926267 
1506.000000	36.195061 
1505.000000	34.838385 
1504.000000	33.860285 
1503.000000	33.070037 
1502.000000	32.335891 
1501.000000	31.648798 
1500.000000	31.064505 
1499.000000	30.595147 
1498.000000	30.209464 
1497.000000	29.917549 
1496.000000	29.770017 
1495.000000	29.768760 
1494.000000	29.879806 
1493.000000	30.103786 
1492.000000	30.459199 
1491.000000	30.935718 
1490.000000	31.507722 
1489.000000	32.169954 
1488.000000	32.919183 
1487.000000	33.724910 
1486.000000	34.553233 
1485.000000	35.398483 
1484.000000	36.269805 
1483.000000	37.167421 
1482.000000	38.080346 
1481.000000	38.988218 
1480.000000	39.869041 
1479.000000	40.716741 
1478.000000	41.544718 
1477.000000	42.363904 
1476.000000	43.166527 
1475.000000	43.940751 
1474.000000	44.690634 
1473.000000	45.423723 
1472.000000	46.126738 
1471.000000	46.786483 
1470.000000	47.414544 
1469.000000	48.025214 
1468.000000	48.619827 
1467.000000	49.193364 
1466.000000	49.732846 
1465.000000	50.210680 
1464.000000	50.593917 
1463.000000	50.864772 
1462.000000	51.015215 
1461.000000	51.041401 
1460.000000	50.979143 
1459.000000	50.934284 
1458.000000	51.068826 
1457.000000	51.472105 
1456.000000	52.033270 
1455.000000	52.592762 
1454.000000	53.084353 
1453.000000	53.455927 
1452.000000	53.640478 
1451.000000	53.583834 
1450.000000	53.207205 
1449.000000	52.349827 
1448.000000	50.890804 
1447.000000	48.974443 
1446.000000	46.999202 
1445.000000	45.432713 
1444.000000	44.729118 
1443.000000	45.222929 
1442.000000	46.887947 
1441.000000	49.260121 
1440.000000	51.737563 
1439.000000	53.954381 
1438.000000	55.837007 
1437.000000	57.371026 
1436.000000	58.480219 
1435.000000	59.202933 
1434.000000	59.711024 
1433.000000	60.091640 
1432.000000	60.306286 
1431.000000	60.313599 
1430.000000	60.127043 
1429.000000	59.751136 
1428.000000	59.167674 
1427.000000	58.385573 
1426.000000	57.396720 
1425.000000	56.129462 
1424.000000	54.573613 
1423.000000	52.886320 
1422.000000	51.185535 
1421.000000	49.337927 
1420.000000	47.125555 
1419.000000	44.646299 
1418.000000	42.306563 
1417.000000	40.327311 
1416.000000	38.645707 
1415.000000	37.182990 
1414.000000	35.913241 
1413.000000	34.821710 
1412.000000	33.922500 
1411.000000	33.254516 
1410.000000	32.807306 
1409.000000	32.518594 
1408.000000	32.360847 
1407.000000	32.345497 
1406.000000	32.446198 
1405.000000	32.603675 
1404.000000	32.802793 
1403.000000	33.059678 
1402.000000	33.347505 
1401.000000	33.617769 
1400.000000	33.873577 
1399.000000	34.150777 
1398.000000	34.441094 
1397.000000	34.710067 
1396.000000	34.971649 
1395.000000	35.266105 
1394.000000	35.585221 
1393.000000	35.893082 
1392.000000	36.196552 
1391.000000	36.524629 
1390.000000	36.870961 
1389.000000	37.211717 
1388.000000	37.558983 
1387.000000	37.942128 
1386.000000	38.347570 
1385.000000	38.743602 
1384.000000	39.140156 
1383.000000	39.567353 
1382.000000	40.024342 
1381.000000	40.494628 
1380.000000	40.990256 
1379.000000	41.531046 
1378.000000	42.100432 
1377.000000	42.671374 
1376.000000	43.255458 
1375.000000	43.877866 
1374.000000	44.518245 
1373.000000	45.130262 
1372.000000	45.708426 
1371.000000	46.278173 
1370.000000	46.840913 
1369.000000	47.374463 
1368.000000	47.869632 
1367.000000	48.338351 
1366.000000	48.794962 
1365.000000	49.253787 
1364.000000	49.731895 
1363.000000	50.225314 
1362.000000	50.697069 
1361.000000	51.120344 
1360.000000	51.507789 
1359.000000	51.873210 
1358.000000	52.201623 
1357.000000	52.478710 
1356.000000	52.720510 
1355.000000	52.949359 
1354.000000	53.160357 
1353.000000	53.337147 
1352.000000	53.481950 
1351.000000	53.599710 
1350.000000	53.669306 
1349.000000	53.658912 
1348.000000	53.552621 
1347.000000	53.338106 
1346.000000	52.982405 
1345.000000	52.447813 
1344.000000	51.718501 
1343.000000	50.782528 
1342.000000	49.599434 
1341.000000	48.125863 
1340.000000	46.383173 
1339.000000	44.466901 
1338.000000	42.473306 
1337.000000	40.458775 
1336.000000	38.487804 
1335.000000	36.670822 
1334.000000	35.137163 
1333.000000	34.007286 
1332.000000	33.387709 
1331.000000	33.330360 
1330.000000	33.775440 
1329.000000	34.575074 
1328.000000	35.578026 
1327.000000	36.662940 
1326.000000	37.719683 
1325.000000	38.659204 
1324.000000	39.441112 
1323.000000	40.054630 
1322.000000	40.473475 
1321.000000	40.656691 
1320.000000	40.590366 
1319.000000	40.308085 
1318.000000	39.877931 
1317.000000	39.392016 
1316.000000	38.959802 
1315.000000	38.676535 
1314.000000	38.586683 
1313.000000	38.691964 
1312.000000	38.987219 
1311.000000	39.461640 
1310.000000	40.075724 
1309.000000	40.773934 
1308.000000	41.520204 
1307.000000	42.296551 
1306.000000	43.075985 
1305.000000	43.826680 
1304.000000	44.537381 
1303.000000	45.213132 
1302.000000	45.850631 
1301.000000	46.440982 
1300.000000	46.989665 
1299.000000	47.509646 
1298.000000	47.999371 
1297.000000	48.450002 
1296.000000	48.869391 
1295.000000	49.276098 
1294.000000	49.673183 
1293.000000	50.048912 
1292.000000	50.400621 
1291.000000	50.738348 
1290.000000	51.067458 
1289.000000	51.386231 
1288.000000	51.698465 
1287.000000	52.010733 
1286.000000	52.319149 
1285.000000	52.615131 
1284.000000	52.901731 
1283.000000	53.189252 
1282.000000	53.478151 
1281.000000	53.761414 
1280.000000	54.039883 
1279.000000	54.319272 
1278.000000	54.595446 
1277.000000	54.858445 
1276.000000	55.109045 
1275.000000	55.356949 
1274.000000	55.605518 
1273.000000	55.851976 
1272.000000	56.099133 
1271.000000	56.351626 
1270.000000	56.602417 
1269.000000	56.837878 
1268.000000	57.055484 
1267.000000	57.264185 
1266.000000	57.469215 
1265.000000	57.668397 
1264.000000	57.861350 
1263.000000	58.049720 
1262.000000	58.229389 
1261.000000	58.394484 
1260.000000	58.548501 
1259.000000	58.701066 
1258.000000	58.855337 
1257.000000	59.007980 
1256.000000	59.158444 
1255.000000	59.307238 
1254.000000	59.447925 
1253.000000	59.572410 
1252.000000	59.682795 
1251.000000	59.787515 
1250.000000	59.887801 
1249.000000	59.978609 
1248.000000	60.060761 
1247.000000	60.140802 
1246.000000	60.220082 
1245.000000	60.294763 
1244.000000	60.365645 
1243.000000	60.436894 
1242.000000	60.505751 
1241.000000	60.564863 
1240.000000	60.615052 
1239.000000	60.665401 
1238.000000	60.720613 
1237.000000	60.778133 
1236.000000	60.837414 
1235.000000	60.902146 
1234.000000	60.974179 
1233.000000	61.055301 
1232.000000	61.154158 
1231.000000	61.281305 
1230.000000	61.437578 
1229.000000	61.615632 
1228.000000	61.810581 
1227.000000	62.020583 
1226.000000	62.241401 
1225.000000	62.469726 
1224.000000	62.704509 
1223.000000	62.930786 
1222.000000	63.108386 
1221.000000	63.197353 
1220.000000	63.201335 
1219.000000	63.177160 
1218.000000	63.196967 
1217.000000	63.303152 
1216.000000	63.493163 
1215.000000	63.730115 
1214.000000	63.964126 
1213.000000	64.158601 
1212.000000	64.307294 
1211.000000	64.426116 
1210.000000	64.529933 
1209.000000	64.622685 
1208.000000	64.706928 
1207.000000	64.791257 
1206.000000	64.884707 
1205.000000	64.991731 
1204.000000	65.115904 
1203.000000	65.261725 
1202.000000	65.429425 
1201.000000	65.612898 
1200.000000	65.804963 
1199.000000	66.001822 
1198.000000	66.203566 
1197.000000	66.414393 
1196.000000	66.640768 
1195.000000	66.884391 
1194.000000	67.137888 
1193.000000	67.391571 
1192.000000	67.642376 
1191.000000	67.892273 
1190.000000	68.141040 
1189.000000	68.385848 
1188.000000	68.625575 
1187.000000	68.860159 
1186.000000	69.087203 
1185.000000	69.304176 
1184.000000	69.513174 
1183.000000	69.719251 
1182.000000	69.924275 
1181.000000	70.125258 
1180.000000	70.317396 
1179.000000	70.495962 
1178.000000	70.657871 
1177.000000	70.806046 
1176.000000	70.951188 
1175.000000	71.104085 
1174.000000	71.264959 
1173.000000	71.423889 
1172.000000	71.572290 
1171.000000	71.710360 
1170.000000	71.842243 
1169.000000	71.968247 
1168.000000	72.085937 
1167.000000	72.197541 
1166.000000	72.311538 
1165.000000	72.434561 
1164.000000	72.563539 
1163.000000	72.688167 
1162.000000	72.800390 
1161.000000	72.899164 
1160.000000	72.986219 
1159.000000	73.060969 
1158.000000	73.121960 
1157.000000	73.170740 
1156.000000	73.210577 
1155.000000	73.241386 
1154.000000	73.258336 
1153.000000	73.255975 
1152.000000	73.231650 
1151.000000	73.183159 
1150.000000	73.103625 
1149.000000	72.980791 
1148.000000	72.802527 
1147.000000	72.561740 
1146.000000	72.252826 
1145.000000	71.862153 
1144.000000	71.364333 
1143.000000	70.729904 
1142.000000	69.937380 
1141.000000	68.981627 
1140.000000	67.879173 
1139.000000	66.671358 
1138.000000	65.422384 
1137.000000	64.215366 
1136.000000	63.148369 
1135.000000	62.319824 
1134.000000	61.804521 
1133.000000	61.643303 
1132.000000	61.846759 
1131.000000	62.387383 
1130.000000	63.189396 
1129.000000	64.147841 
1128.000000	65.160817 
1127.000000	66.136843 
1126.000000	66.987835 
1125.000000	67.639113 
1124.000000	68.046953 
1123.000000	68.195775 
1122.000000	68.078022 
1121.000000	67.681685 
1120.000000	66.995217 
1119.000000	66.017712 
1118.000000	64.765652 
1117.000000	63.282504 
1116.000000	61.650249 
1115.000000	59.981804 
1114.000000	58.391572 
1113.000000	56.980627 
1112.000000	55.847031 
1111.000000	55.074971 
1110.000000	54.692922 
1109.000000	54.662157 
1108.000000	54.914168 
1107.000000	55.378848 
1106.000000	55.982412 
1105.000000	56.656165 
1104.000000	57.359574 
1103.000000	58.076927 
1102.000000	58.792705 
1101.000000	59.489066 
1100.000000	60.163669 
1099.000000	60.826821 
1098.000000	61.477852 
1097.000000	62.104179 
1096.000000	62.701463 
1095.000000	63.276437 
1094.000000	63.830165 
1093.000000	64.356954 
1092.000000	64.860042 
1091.000000	65.350325 
1090.000000	65.828091 
1089.000000	66.283492 
1088.000000	66.717305 
1087.000000	67.143287 
1086.000000	67.564252 
1085.000000	67.961605 
1084.000000	68.317488 
1083.000000	68.636902 
1082.000000	68.940633 
1081.000000	69.244022 
1080.000000	69.547994 
1079.000000	69.842701 
1078.000000	70.114305 
1077.000000	70.355773 
1076.000000	70.576695 
1075.000000	70.795938 
1074.000000	71.019535 
1073.000000	71.232948 
1072.000000	71.420199 
1071.000000	71.582685 
1070.000000	71.732828 
1069.000000	71.877681 
1068.000000	72.018532 
1067.000000	72.159350 
1066.000000	72.301815 
1065.000000	72.434100 
1064.000000	72.538033 
1063.000000	72.610646 
1062.000000	72.669981 
1061.000000	72.736694 
1060.000000	72.816993 
1059.000000	72.904643 
1058.000000	72.990611 
1057.000000	73.066739 
1056.000000	73.127308 
1055.000000	73.173667 
1054.000000	73.214045 
1053.000000	73.253245 
1052.000000	73.284314 
1051.000000	73.295479 
1050.000000	73.284917 
1049.000000	73.263934 
1048.000000	73.244474 
1047.000000	73.225209 
1046.000000	73.187799 
1045.000000	73.101553 
1044.000000	72.928257 
1043.000000	72.623010 
1042.000000	72.134404 
1041.000000	71.410598 
1040.000000	70.415214 
1039.000000	69.150205 
1038.000000	67.679686 
1037.000000	66.150753 
1036.000000	64.795200 
1035.000000	63.876177 
1034.000000	63.581357 
1033.000000	63.942024 
1032.000000	64.839697 
1031.000000	66.070359 
1030.000000	67.416628 
1029.000000	68.707252 
1028.000000	69.846528 
1027.000000	70.806081 
1026.000000	71.596632 
1025.000000	72.243561 
1024.000000	72.776270 
1023.000000	73.224950 
1022.000000	73.614037 
1021.000000	73.953882 
1020.000000	74.242793 
1019.000000	74.481301 
1018.000000	74.682305 
1017.000000	74.864593 
1016.000000	75.039453 
1015.000000	75.206746 
1014.000000	75.360812 
1013.000000	75.496266 
1012.000000	75.611309 
1011.000000	75.711792 
1010.000000	75.811530 
1009.000000	75.922756 
1008.000000	76.044509 
1007.000000	76.163555 
1006.000000	76.268097 
1005.000000	76.358663 
1004.000000	76.445182 
1003.000000	76.535734 
1002.000000	76.629199 
1001.000000	76.718391 
1000.000000	76.800696 
999.000000	 76.885017 
998.000000	 76.984498 
997.000000	 77.100117 
996.000000	 77.215648 
995.000000	 77.313703 
994.000000	 77.394319 
993.000000	 77.472019 
992.000000	 77.556460 
991.000000	 77.644170 
990.000000	 77.730577 
989.000000	 77.821141 
988.000000	 77.923454 
987.000000	 78.032183 
986.000000	 78.129947 
985.000000	 78.205087 
984.000000	 78.264746 
983.000000	 78.328082 
982.000000	 78.408373 
981.000000	 78.504344 
980.000000	 78.608430 
979.000000	 78.718828 
978.000000	 78.839357 
977.000000	 78.969827 
976.000000	 79.103878 
975.000000	 79.239400 
974.000000	 79.385445 
973.000000	 79.552508 
972.000000	 79.737821 
971.000000	 79.925755 
970.000000	 80.102329 
969.000000	 80.264412 
968.000000	 80.414649 
967.000000	 80.553012 
966.000000	 80.675497 
965.000000	 80.778441 
964.000000	 80.864183 
963.000000	 80.945184 
962.000000	 81.040026 
961.000000	 81.159077 
960.000000	 81.293235 
959.000000	 81.420662 
958.000000	 81.525084 
957.000000	 81.604974 
956.000000	 81.667852 
955.000000	 81.722602 
954.000000	 81.776481 
953.000000	 81.832040 
952.000000	 81.885851 
951.000000	 81.936250 
950.000000	 81.992610 
949.000000	 82.069751 
948.000000	 82.170932 
947.000000	 82.282714 
946.000000	 82.390133 
945.000000	 82.492041 
944.000000	 82.597857 
943.000000	 82.713218 
942.000000	 82.832572 
941.000000	 82.943502 
940.000000	 83.035673 
939.000000	 83.107515 
938.000000	 83.166153 
937.000000	 83.219355 
936.000000	 83.266949 
935.000000	 83.300894 
934.000000	 83.311737 
933.000000	 83.292335 
932.000000	 83.237920 
931.000000	 83.147214 
930.000000	 83.021044 
929.000000	 82.853422 
928.000000	 82.624088 
927.000000	 82.304314 
926.000000	 81.869239 
925.000000	 81.299972 
924.000000	 80.573898 
923.000000	 79.655076 
922.000000	 78.489693 
921.000000	 77.006266 
920.000000	 75.124533 
919.000000	 72.770018 
918.000000	 69.881856 
917.000000	 66.419768 
916.000000	 62.393236 
915.000000	 57.901998 
914.000000	 53.143439 
913.000000	 48.382702 
912.000000	 43.919816 
911.000000	 40.046456 
910.000000	 36.977122 
909.000000	 34.810053 
908.000000	 33.553433 
907.000000	 33.154647 
906.000000	 33.497896 
905.000000	 34.424016 
904.000000	 35.778657 
903.000000	 37.419781 
902.000000	 39.178925 
901.000000	 40.839171 
900.000000	 42.143689 
899.000000	 42.816495 
898.000000	 42.627784 
897.000000	 41.521001 
896.000000	 39.710577 
895.000000	 37.637530 
894.000000	 35.800947 
893.000000	 34.607196 
892.000000	 34.314709 
891.000000	 35.006683 
890.000000	 36.561250 
889.000000	 38.699857 
888.000000	 41.117574 
887.000000	 43.580631 
886.000000	 45.941311 
885.000000	 48.124804 
884.000000	 50.119538 
883.000000	 51.949933 
882.000000	 53.637161 
881.000000	 55.186500 
880.000000	 56.603012 
879.000000	 57.899295 
878.000000	 59.087040 
877.000000	 60.175902 
876.000000	 61.180753 
875.000000	 62.117080 
874.000000	 62.989470 
873.000000	 63.795425 
872.000000	 64.538682 
871.000000	 65.229213 
870.000000	 65.873580 
869.000000	 66.475275 
868.000000	 67.041410 
867.000000	 67.579287 
866.000000	 68.088546 
865.000000	 68.565634 
864.000000	 69.014214 
863.000000	 69.443159 
862.000000	 69.856311 
861.000000	 70.251671 
860.000000	 70.628347 
859.000000	 70.986850 
858.000000	 71.324691 
857.000000	 71.639450 
856.000000	 71.935088 
855.000000	 72.218985 
854.000000	 72.494854 
853.000000	 72.764685 
852.000000	 73.033585 
851.000000	 73.303702 
850.000000	 73.565856 
849.000000	 73.807543 
848.000000	 74.029877 
847.000000	 74.248249 
846.000000	 74.475182 
845.000000	 74.709577 
844.000000	 74.942922 
843.000000	 75.168390 
842.000000	 75.383314 
841.000000	 75.590254 
840.000000	 75.796723 
839.000000	 76.006713 
838.000000	 76.211203 
837.000000	 76.394913 
836.000000	 76.555413 
835.000000	 76.708743 
834.000000	 76.872216 
833.000000	 77.046989 
832.000000	 77.221141 
831.000000	 77.384491 
830.000000	 77.536316 
829.000000	 77.683555 
828.000000	 77.837624 
827.000000	 78.010696 
826.000000	 78.208521 
825.000000	 78.425441 
824.000000	 78.647994 
823.000000	 78.862574 
822.000000	 79.059938 
821.000000	 79.236390 
820.000000	 79.393095 
819.000000	 79.533229 
818.000000	 79.660171 
817.000000	 79.780378 
816.000000	 79.905048 
815.000000	 80.041688 
814.000000	 80.182774 
813.000000	 80.310035 
812.000000	 80.413738 
811.000000	 80.502324 
810.000000	 80.590749 
809.000000	 80.687415 
808.000000	 80.797450 
807.000000	 80.928337 
806.000000	 81.080372 
805.000000	 81.237872 
804.000000	 81.384547 
803.000000	 81.526494 
802.000000	 81.685471 
801.000000	 81.866753 
800.000000	 82.048017 
799.000000	 82.207348 
798.000000	 82.350614 
797.000000	 82.498844 
796.000000	 82.654968 
795.000000	 82.796867 
794.000000	 82.902907 
793.000000	 82.973632 
792.000000	 83.026296 
791.000000	 83.077788 
790.000000	 83.137728 
789.000000	 83.210297 
788.000000	 83.293413 
787.000000	 83.376452 
786.000000	 83.446429 
785.000000	 83.501303 
784.000000	 83.554351 
783.000000	 83.620923 
782.000000	 83.702282 
781.000000	 83.788187 
780.000000	 83.875273 
779.000000	 83.973508 
778.000000	 84.088664 
777.000000	 84.206901 
776.000000	 84.308630 
775.000000	 84.394791 
774.000000	 84.486131 
773.000000	 84.594689 
772.000000	 84.709163 
771.000000	 84.814498 
770.000000	 84.914213 
769.000000	 85.022440 
768.000000	 85.141761 
767.000000	 85.262441 
766.000000	 85.380598 
765.000000	 85.503254 
764.000000	 85.633141 
763.000000	 85.760312 
762.000000	 85.874855 
761.000000	 85.980229 
760.000000	 86.086457 
759.000000	 86.194928 
758.000000	 86.299103 
757.000000	 86.400048 
756.000000	 86.512435 
755.000000	 86.649475 
754.000000	 86.805590 
753.000000	 86.960655 
752.000000	 87.101642 
751.000000	 87.234159 
750.000000	 87.369881 
749.000000	 87.508367 
748.000000	 87.638255 
747.000000	 87.755664 
746.000000	 87.873878 
745.000000	 88.010076 
744.000000	 88.165456 
743.000000	 88.322559 
742.000000	 88.462247 
741.000000	 88.581920 
740.000000	 88.697158 
739.000000	 88.826817 
738.000000	 88.976684 
737.000000	 89.136145 
736.000000	 89.288763 
735.000000	 89.425697 
734.000000	 89.551026 
733.000000	 89.676311 
732.000000	 89.808009 
731.000000	 89.936880 
730.000000	 90.041285 
729.000000	 90.106536 
728.000000	 90.141296 
727.000000	 90.168214 
726.000000	 90.200602 
725.000000	 90.237791 
724.000000	 90.278075 
723.000000	 90.317562 
722.000000	 90.331502 
721.000000	 90.276262 
720.000000	 90.126239 
719.000000	 89.896183 
718.000000	 89.612116 
717.000000	 89.279622 
716.000000	 88.893846 
715.000000	 88.455085 
714.000000	 87.953585 
713.000000	 87.356751 
712.000000	 86.633628 
711.000000	 85.777640 
710.000000	 84.786333 
709.000000	 83.635960 
708.000000	 82.297679 
707.000000	 80.759626 
706.000000	 79.010613 
705.000000	 77.029604 
704.000000	 74.824248 
703.000000	 72.461339 
702.000000	 70.031434 
701.000000	 67.602678 
700.000000	 65.235002 
699.000000	 63.011220 
698.000000	 61.016781 
697.000000	 59.301772 
696.000000	 57.878660 
695.000000	 56.737809 
694.000000	 55.854478 
693.000000	 55.200336 
692.000000	 54.757796 
691.000000	 54.507562 
690.000000	 54.404940 
689.000000	 54.396336 
688.000000	 54.460638 
687.000000	 54.606746 
686.000000	 54.828106 
685.000000	 55.088893 
684.000000	 55.358911 
683.000000	 55.637751 
682.000000	 55.943545 
681.000000	 56.297129 
680.000000	 56.714127 
679.000000	 57.193037 
678.000000	 57.709629 
677.000000	 58.236647 
676.000000	 58.763773 
675.000000	 59.289451 
674.000000	 59.810976 
673.000000	 60.327350 
672.000000	 60.839337 
671.000000	 61.352767 
670.000000	 61.909709 
669.000000	 62.559085 
668.000000	 63.187687 
667.000000	 63.669882 
666.000000	 64.121502 
665.000000	 64.597273 
664.000000	 65.106172 
663.000000	 65.668141 
662.000000	 66.263986 
661.000000	 66.835017 
660.000000	 67.350830 
659.000000	 67.823718 
658.000000	 68.270049 
657.000000	 68.691028 
656.000000	 69.092433 
655.000000	 69.499805 
654.000000	 69.950916 
653.000000	 70.454741 
652.000000	 70.972675 
651.000000	 71.435976 
650.000000	 71.823859 

