PE IR                   SPECTRUM    ASCII       PEDS        1.60        
  -1
~SP.SP
18/03/23
18:20:00.00
18/03/23
18:20:00.00
pili

650.000000
4









SPECTRUM 100,CPU32 MAIN 00.02.8200 12-DECEMBER-2006 10:00:00
MIR TGS
MIR
OPTKBR
78890
0.200000

4.000000
STRONG
RATIO
SPECTRUM
MAGNITUDE
UNIVERSAL ATR
DOUBLE

COMBINED


0


#HDR
-1
-1
#GR
CM-1
%T
0.00002384185791015625
0.0
4000.000000
-1.000000
3351
8
98.390255
26.607611
#DATA
4000.000000	97.015408 
3999.000000	97.014781 
3998.000000	97.016972 
3997.000000	97.022434 
3996.000000	97.009981 
3995.000000	97.016974 
3994.000000	97.025731 
3993.000000	97.035523 
3992.000000	97.046050 
3991.000000	97.057247 
3990.000000	97.068225 
3989.000000	97.076695 
3988.000000	97.079751 
3987.000000	97.076088 
3986.000000	97.067713 
3985.000000	97.059232 
3984.000000	97.054684 
3983.000000	97.054393 
3982.000000	97.054834 
3981.000000	97.052173 
3980.000000	97.046319 
3979.000000	97.040457 
3978.000000	97.036262 
3977.000000	97.031100 
3976.000000	97.021427 
3975.000000	97.008061 
3974.000000	96.995894 
3973.000000	96.988479 
3972.000000	96.985030 
3971.000000	96.983343 
3970.000000	96.983943 
3969.000000	96.989535 
3968.000000	97.000740 
3967.000000	97.013858 
3966.000000	97.022803 
3965.000000	97.023201 
3964.000000	97.015547 
3963.000000	97.005057 
3962.000000	96.997831 
3961.000000	96.996543 
3960.000000	96.999636 
3959.000000	97.003803 
3958.000000	97.006986 
3957.000000	97.009271 
3956.000000	97.012198 
3955.000000	97.017961 
3954.000000	97.027711 
3953.000000	97.039965 
3952.000000	97.050991 
3951.000000	97.057717 
3950.000000	97.060391 
3949.000000	97.061168 
3948.000000	97.061207 
3947.000000	97.060162 
3946.000000	97.057854 
3945.000000	97.055372 
3944.000000	97.054744 
3943.000000	97.057708 
3942.000000	97.063407 
3941.000000	97.068178 
3940.000000	97.068746 
3939.000000	97.065183 
3938.000000	97.060586 
3937.000000	97.057945 
3936.000000	97.057535 
3935.000000	97.057669 
3934.000000	97.056469 
3933.000000	97.052911 
3932.000000	97.046706 
3931.000000	97.038755 
3930.000000	97.030653 
3929.000000	97.022390 
3928.000000	97.012597 
3927.000000	97.001845 
3926.000000	96.993986 
3925.000000	96.993435 
3924.000000	97.000851 
3923.000000	97.013073 
3922.000000	97.027348 
3921.000000	97.042569 
3920.000000	97.057246 
3919.000000	97.068136 
3918.000000	97.072335 
3917.000000	97.070324 
3916.000000	97.065459 
3915.000000	97.060887 
3914.000000	97.057602 
3913.000000	97.055400 
3912.000000	97.054416 
3911.000000	97.054722 
3910.000000	97.055599 
3909.000000	97.055393 
3908.000000	97.052165 
3907.000000	97.046109 
3906.000000	97.041035 
3905.000000	97.043485 
3904.000000	97.057264 
3903.000000	97.078001 
3902.000000	97.096579 
3901.000000	97.106674 
3900.000000	97.107296 
3899.000000	97.101506 
3898.000000	97.093077 
3897.000000	97.084946 
3896.000000	97.078968 
3895.000000	97.075086 
3894.000000	97.072254 
3893.000000	97.071785 
3892.000000	97.077616 
3891.000000	97.090998 
3890.000000	97.106355 
3889.000000	97.115677 
3888.000000	97.113606 
3887.000000	97.102248 
3886.000000	97.092567 
3885.000000	97.095009 
3884.000000	97.108651 
3883.000000	97.123213 
3882.000000	97.128177 
3881.000000	97.119658 
3880.000000	97.101001 
3879.000000	97.079699 
3878.000000	97.062335 
3877.000000	97.052764 
3876.000000	97.053264 
3875.000000	97.064903 
3874.000000	97.083877 
3873.000000	97.100762 
3872.000000	97.107225 
3871.000000	97.104769 
3870.000000	97.102319 
3869.000000	97.102848 
3868.000000	97.102209 
3867.000000	97.098176 
3866.000000	97.092403 
3865.000000	97.088322 
3864.000000	97.087756 
3863.000000	97.089621 
3862.000000	97.093611 
3861.000000	97.100040 
3860.000000	97.107317 
3859.000000	97.113305 
3858.000000	97.117689 
3857.000000	97.120019 
3856.000000	97.117392 
3855.000000	97.109629 
3854.000000	97.110384 
3853.000000	97.121717 
3852.000000	97.122632 
3851.000000	97.105468 
3850.000000	97.085430 
3849.000000	97.077940 
3848.000000	97.088124 
3847.000000	97.109793 
3846.000000	97.131819 
3845.000000	97.146344 
3844.000000	97.151116 
3843.000000	97.147135 
3842.000000	97.137097 
3841.000000	97.123887 
3840.000000	97.111196 
3839.000000	97.104956 
3838.000000	97.109890 
3837.000000	97.124913 
3836.000000	97.143578 
3835.000000	97.158792 
3834.000000	97.166087 
3833.000000	97.163807 
3832.000000	97.154189 
3831.000000	97.143182 
3830.000000	97.136234 
3829.000000	97.135501 
3828.000000	97.139980 
3827.000000	97.146706 
3826.000000	97.152760 
3825.000000	97.155525 
3824.000000	97.150877 
3823.000000	97.135351 
3822.000000	97.115462 
3821.000000	97.104640 
3820.000000	97.106889 
3819.000000	97.117614 
3818.000000	97.132902 
3817.000000	97.149915 
3816.000000	97.164004 
3815.000000	97.169181 
3814.000000	97.164717 
3813.000000	97.156816 
3812.000000	97.152727 
3811.000000	97.155449 
3810.000000	97.162508 
3809.000000	97.167601 
3808.000000	97.166119 
3807.000000	97.158621 
3806.000000	97.149486 
3805.000000	97.143006 
3804.000000	97.140208 
3803.000000	97.138427 
3802.000000	97.136634 
3801.000000	97.135927 
3800.000000	97.136485 
3799.000000	97.139712 
3798.000000	97.146287 
3797.000000	97.152189 
3796.000000	97.152469 
3795.000000	97.147847 
3794.000000	97.144736 
3793.000000	97.148067 
3792.000000	97.156161 
3791.000000	97.162646 
3790.000000	97.162308 
3789.000000	97.154807 
3788.000000	97.143967 
3787.000000	97.135445 
3786.000000	97.134089 
3785.000000	97.140944 
3784.000000	97.151952 
3783.000000	97.160541 
3782.000000	97.162222 
3781.000000	97.157811 
3780.000000	97.152518 
3779.000000	97.149145 
3778.000000	97.144580 
3777.000000	97.134858 
3776.000000	97.120600 
3775.000000	97.106083 
3774.000000	97.095222 
3773.000000	97.088933 
3772.000000	97.086190 
3771.000000	97.087653 
3770.000000	97.096183 
3769.000000	97.111616 
3768.000000	97.128580 
3767.000000	97.141368 
3766.000000	97.146870 
3765.000000	97.144977 
3764.000000	97.138597 
3763.000000	97.132517 
3762.000000	97.131289 
3761.000000	97.138053 
3760.000000	97.153837 
3759.000000	97.174262 
3758.000000	97.190471 
3757.000000	97.195973 
3756.000000	97.190657 
3755.000000	97.178480 
3754.000000	97.164502 
3753.000000	97.154592 
3752.000000	97.155705 
3751.000000	97.170449 
3750.000000	97.190589 
3749.000000	97.207949 
3748.000000	97.223789 
3747.000000	97.240614 
3746.000000	97.254064 
3745.000000	97.259482 
3744.000000	97.253506 
3743.000000	97.235920 
3742.000000	97.214372 
3741.000000	97.197444 
3740.000000	97.187600 
3739.000000	97.182125 
3738.000000	97.175069 
3737.000000	97.163033 
3736.000000	97.150791 
3735.000000	97.148030 
3734.000000	97.159344 
3733.000000	97.178346 
3732.000000	97.192900 
3731.000000	97.197221 
3730.000000	97.196987 
3729.000000	97.201559 
3728.000000	97.212265 
3727.000000	97.220918 
3726.000000	97.218679 
3725.000000	97.204561 
3724.000000	97.185315 
3723.000000	97.169602 
3722.000000	97.162806 
3721.000000	97.163823 
3720.000000	97.167559 
3719.000000	97.169808 
3718.000000	97.170795 
3717.000000	97.176043 
3716.000000	97.191457 
3715.000000	97.215669 
3714.000000	97.238623 
3713.000000	97.249176 
3712.000000	97.247129 
3711.000000	97.239882 
3710.000000	97.231341 
3709.000000	97.222149 
3708.000000	97.213442 
3707.000000	97.209474 
3706.000000	97.212678 
3705.000000	97.220023 
3704.000000	97.224142 
3703.000000	97.219290 
3702.000000	97.207088 
3701.000000	97.194169 
3700.000000	97.186758 
3699.000000	97.188439 
3698.000000	97.199104 
3697.000000	97.214795 
3696.000000	97.230327 
3695.000000	97.241043 
3694.000000	97.245420 
3693.000000	97.245831 
3692.000000	97.248686 
3691.000000	97.260189 
3690.000000	97.279802 
3689.000000	97.295853 
3688.000000	97.293604 
3687.000000	97.275035 
3686.000000	97.257048 
3685.000000	97.252032 
3684.000000	97.257096 
3683.000000	97.260323 
3682.000000	97.254224 
3681.000000	97.243553 
3680.000000	97.238731 
3679.000000	97.242365 
3678.000000	97.244158 
3677.000000	97.232398 
3676.000000	97.215491 
3675.000000	97.211903 
3674.000000	97.225573 
3673.000000	97.247828 
3672.000000	97.267286 
3671.000000	97.274813 
3670.000000	97.271880 
3669.000000	97.264853 
3668.000000	97.257403 
3667.000000	97.252929 
3666.000000	97.254525 
3665.000000	97.263254 
3664.000000	97.277104 
3663.000000	97.291093 
3662.000000	97.300837 
3661.000000	97.306577 
3660.000000	97.310991 
3659.000000	97.313524 
3658.000000	97.308847 
3657.000000	97.294322 
3656.000000	97.276406 
3655.000000	97.266745 
3654.000000	97.273636 
3653.000000	97.295139 
3652.000000	97.318506 
3651.000000	97.329219 
3650.000000	97.326338 
3649.000000	97.321359 
3648.000000	97.321232 
3647.000000	97.323530 
3646.000000	97.324079 
3645.000000	97.322215 
3644.000000	97.321665 
3643.000000	97.327134 
3642.000000	97.338523 
3641.000000	97.349035 
3640.000000	97.349286 
3639.000000	97.335955 
3638.000000	97.314983 
3637.000000	97.296938 
3636.000000	97.289858 
3635.000000	97.295700 
3634.000000	97.312079 
3633.000000	97.334952 
3632.000000	97.359045 
3631.000000	97.378047 
3630.000000	97.390085 
3629.000000	97.401006 
3628.000000	97.412637 
3627.000000	97.420269 
3626.000000	97.421422 
3625.000000	97.415025 
3624.000000	97.400286 
3623.000000	97.379789 
3622.000000	97.359544 
3621.000000	97.346275 
3620.000000	97.345227 
3619.000000	97.356129 
3618.000000	97.371586 
3617.000000	97.384926 
3616.000000	97.394743 
3615.000000	97.400992 
3614.000000	97.404108 
3613.000000	97.406720 
3612.000000	97.413972 
3611.000000	97.430492 
3610.000000	97.454609 
3609.000000	97.477008 
3608.000000	97.487361 
3607.000000	97.484667 
3606.000000	97.478883 
3605.000000	97.480878 
3604.000000	97.491601 
3603.000000	97.501923 
3602.000000	97.502369 
3601.000000	97.492280 
3600.000000	97.480830 
3599.000000	97.477914 
3598.000000	97.486344 
3597.000000	97.502609 
3596.000000	97.521333 
3595.000000	97.537274 
3594.000000	97.547203 
3593.000000	97.550930 
3592.000000	97.551000 
3591.000000	97.549920 
3590.000000	97.547297 
3589.000000	97.542602 
3588.000000	97.539679 
3587.000000	97.544658 
3586.000000	97.559266 
3585.000000	97.581230 
3584.000000	97.606136 
3583.000000	97.628796 
3582.000000	97.644178 
3581.000000	97.649865 
3580.000000	97.647687 
3579.000000	97.642061 
3578.000000	97.637954 
3577.000000	97.638743 
3576.000000	97.645148 
3575.000000	97.653340 
3574.000000	97.657356 
3573.000000	97.654590 
3572.000000	97.649169 
3571.000000	97.648498 
3570.000000	97.656209 
3569.000000	97.668687 
3568.000000	97.679249 
3567.000000	97.685316 
3566.000000	97.690543 
3565.000000	97.700918 
3564.000000	97.718944 
3563.000000	97.740675 
3562.000000	97.758912 
3561.000000	97.769254 
3560.000000	97.772716 
3559.000000	97.773029 
3558.000000	97.773138 
3557.000000	97.775299 
3556.000000	97.782723 
3555.000000	97.798053 
3554.000000	97.819729 
3553.000000	97.842567 
3552.000000	97.862758 
3551.000000	97.881552 
3550.000000	97.901743 
3549.000000	97.921204 
3548.000000	97.932539 
3547.000000	97.931773 
3546.000000	97.925608 
3545.000000	97.926466 
3544.000000	97.938948 
3543.000000	97.954455 
3542.000000	97.960531 
3541.000000	97.953721 
3540.000000	97.942756 
3539.000000	97.940734 
3538.000000	97.954305 
3537.000000	97.979143 
3536.000000	98.003056 
3535.000000	98.014654 
3534.000000	98.011115 
3533.000000	98.000092 
3532.000000	97.994187 
3531.000000	98.002066 
3530.000000	98.022580 
3529.000000	98.046374 
3528.000000	98.063554 
3527.000000	98.071113 
3526.000000	98.073642 
3525.000000	98.077273 
3524.000000	98.084059 
3523.000000	98.092512 
3522.000000	98.102026 
3521.000000	98.113681 
3520.000000	98.125893 
3519.000000	98.133314 
3518.000000	98.132876 
3517.000000	98.129628 
3516.000000	98.132186 
3515.000000	98.142595 
3514.000000	98.154209 
3513.000000	98.160228 
3512.000000	98.160915 
3511.000000	98.160958 
3510.000000	98.162534 
3509.000000	98.163904 
3508.000000	98.163775 
3507.000000	98.164203 
3506.000000	98.168505 
3505.000000	98.177896 
3504.000000	98.189520 
3503.000000	98.197459 
3502.000000	98.196880 
3501.000000	98.188197 
3500.000000	98.176568 
3499.000000	98.167573 
3498.000000	98.165290 
3497.000000	98.173702 
3496.000000	98.195738 
3495.000000	98.227757 
3494.000000	98.257409 
3493.000000	98.271281 
3492.000000	98.265334 
3491.000000	98.246612 
3490.000000	98.226052 
3489.000000	98.211622 
3488.000000	98.207075 
3487.000000	98.212542 
3486.000000	98.224248 
3485.000000	98.236098 
3484.000000	98.243253 
3483.000000	98.243329 
3482.000000	98.234656 
3481.000000	98.217075 
3480.000000	98.196390 
3479.000000	98.184461 
3478.000000	98.190069 
3477.000000	98.209419 
3476.000000	98.228765 
3475.000000	98.237395 
3474.000000	98.236799 
3473.000000	98.236458 
3472.000000	98.243048 
3471.000000	98.255000 
3470.000000	98.265766 
3469.000000	98.270099 
3468.000000	98.267839 
3467.000000	98.263971 
3466.000000	98.265320 
3465.000000	98.275520 
3464.000000	98.291823 
3463.000000	98.307308 
3462.000000	98.317623 
3461.000000	98.325616 
3460.000000	98.338198 
3459.000000	98.357999 
3458.000000	98.378755 
3457.000000	98.390255 
3456.000000	98.387401 
3455.000000	98.374386 
3454.000000	98.360315 
3453.000000	98.352093 
3452.000000	98.351692 
3451.000000	98.357491 
3450.000000	98.365897 
3449.000000	98.372074 
3448.000000	98.372238 
3447.000000	98.366881 
3446.000000	98.360568 
3445.000000	98.356901 
3444.000000	98.354580 
3443.000000	98.349877 
3442.000000	98.342270 
3441.000000	98.336177 
3440.000000	98.336948 
3439.000000	98.346487 
3438.000000	98.362252 
3437.000000	98.378481 
3436.000000	98.388071 
3435.000000	98.386253 
3434.000000	98.374206 
3433.000000	98.358521 
3432.000000	98.346368 
3431.000000	98.341390 
3430.000000	98.343538 
3429.000000	98.349884 
3428.000000	98.355177 
3427.000000	98.355110 
3426.000000	98.351101 
3425.000000	98.349195 
3424.000000	98.352048 
3423.000000	98.354735 
3422.000000	98.351437 
3421.000000	98.343817 
3420.000000	98.338471 
3419.000000	98.338075 
3418.000000	98.339882 
3417.000000	98.342106 
3416.000000	98.346471 
3415.000000	98.353390 
3414.000000	98.358828 
3413.000000	98.358253 
3412.000000	98.351610 
3411.000000	98.342806 
3410.000000	98.335901 
3409.000000	98.332694 
3408.000000	98.332432 
3407.000000	98.332787 
3406.000000	98.331945 
3405.000000	98.330190 
3404.000000	98.328697 
3403.000000	98.327321 
3402.000000	98.324719 
3401.000000	98.320188 
3400.000000	98.314009 
3399.000000	98.306531 
3398.000000	98.298286 
3397.000000	98.289879 
3396.000000	98.280336 
3395.000000	98.267406 
3394.000000	98.252355 
3393.000000	98.242895 
3392.000000	98.247136 
3391.000000	98.264106 
3390.000000	98.283085 
3389.000000	98.292707 
3388.000000	98.289080 
3387.000000	98.276764 
3386.000000	98.265548 
3385.000000	98.264964 
3384.000000	98.276274 
3383.000000	98.288513 
3382.000000	98.287118 
3381.000000	98.268961 
3380.000000	98.246090 
3379.000000	98.233191 
3378.000000	98.234385 
3377.000000	98.243566 
3376.000000	98.252987 
3375.000000	98.257742 
3374.000000	98.255332 
3373.000000	98.246412 
3372.000000	98.235982 
3371.000000	98.230243 
3370.000000	98.231344 
3369.000000	98.236528 
3368.000000	98.242015 
3367.000000	98.246307 
3366.000000	98.250346 
3365.000000	98.255952 
3364.000000	98.263762 
3363.000000	98.271923 
3362.000000	98.277703 
3361.000000	98.280929 
3360.000000	98.283876 
3359.000000	98.286439 
3358.000000	98.283489 
3357.000000	98.269660 
3356.000000	98.246286 
3355.000000	98.221681 
3354.000000	98.204597 
3353.000000	98.198398 
3352.000000	98.200673 
3351.000000	98.206597 
3350.000000	98.212608 
3349.000000	98.217772 
3348.000000	98.221897 
3347.000000	98.223052 
3346.000000	98.218634 
3345.000000	98.209651 
3344.000000	98.202181 
3343.000000	98.202629 
3342.000000	98.211379 
3341.000000	98.221425 
3340.000000	98.223135 
3339.000000	98.211286 
3338.000000	98.189188 
3337.000000	98.165991 
3336.000000	98.148525 
3335.000000	98.136112 
3334.000000	98.124893 
3333.000000	98.115227 
3332.000000	98.110515 
3331.000000	98.109310 
3330.000000	98.104830 
3329.000000	98.095052 
3328.000000	98.087931 
3327.000000	98.091606 
3326.000000	98.102474 
3325.000000	98.108575 
3324.000000	98.103197 
3323.000000	98.089883 
3322.000000	98.074359 
3321.000000	98.057123 
3320.000000	98.035562 
3319.000000	98.009060 
3318.000000	97.979288 
3317.000000	97.948229 
3316.000000	97.918941 
3315.000000	97.896659 
3314.000000	97.885492 
3313.000000	97.883024 
3312.000000	97.879962 
3311.000000	97.866862 
3310.000000	97.841592 
3309.000000	97.809958 
3308.000000	97.779267 
3307.000000	97.752172 
3306.000000	97.726845 
3305.000000	97.701332 
3304.000000	97.675676 
3303.000000	97.650396 
3302.000000	97.625312 
3301.000000	97.600537 
3300.000000	97.576678 
3299.000000	97.553219 
3298.000000	97.528517 
3297.000000	97.502675 
3296.000000	97.478920 
3295.000000	97.460243 
3294.000000	97.445310 
3293.000000	97.429208 
3292.000000	97.408184 
3291.000000	97.382881 
3290.000000	97.356941 
3289.000000	97.333058 
3288.000000	97.310736 
3287.000000	97.287881 
3286.000000	97.264074 
3285.000000	97.241044 
3284.000000	97.219633 
3283.000000	97.198509 
3282.000000	97.177870 
3281.000000	97.162493 
3280.000000	97.157364 
3279.000000	97.160569 
3278.000000	97.164013 
3277.000000	97.161811 
3276.000000	97.155047 
3275.000000	97.147416 
3274.000000	97.139407 
3273.000000	97.128435 
3272.000000	97.111964 
3271.000000	97.088814 
3270.000000	97.059700 
3269.000000	97.028035 
3268.000000	96.997857 
3267.000000	96.969411 
3266.000000	96.939248 
3265.000000	96.906367 
3264.000000	96.875723 
3263.000000	96.853186 
3262.000000	96.839168 
3261.000000	96.829363 
3260.000000	96.819257 
3259.000000	96.805355 
3258.000000	96.784542 
3257.000000	96.756203 
3256.000000	96.723883 
3255.000000	96.691468 
3254.000000	96.658524 
3253.000000	96.622901 
3252.000000	96.587133 
3251.000000	96.557932 
3250.000000	96.538276 
3249.000000	96.522895 
3248.000000	96.502982 
3247.000000	96.473584 
3246.000000	96.436051 
3245.000000	96.396030 
3244.000000	96.360711 
3243.000000	96.335645 
3242.000000	96.320806 
3241.000000	96.308904 
3240.000000	96.289183 
3239.000000	96.254941 
3238.000000	96.208693 
3237.000000	96.160480 
3236.000000	96.120495 
3235.000000	96.092016 
3234.000000	96.070077 
3233.000000	96.046214 
3232.000000	96.014705 
3231.000000	95.975620 
3230.000000	95.933610 
3229.000000	95.894010 
3228.000000	95.859066 
3227.000000	95.827299 
3226.000000	95.796530 
3225.000000	95.766870 
3224.000000	95.739856 
3223.000000	95.715259 
3222.000000	95.690594 
3221.000000	95.663854 
3220.000000	95.635110 
3219.000000	95.604970 
3218.000000	95.572983 
3217.000000	95.538234 
3216.000000	95.500452 
3215.000000	95.460501 
3214.000000	95.421116 
3213.000000	95.386817 
3212.000000	95.360472 
3211.000000	95.338978 
3210.000000	95.314506 
3209.000000	95.281324 
3208.000000	95.239649 
3207.000000	95.191868 
3206.000000	95.137910 
3205.000000	95.077112 
3204.000000	95.012957 
3203.000000	94.952110 
3202.000000	94.897861 
3201.000000	94.846289 
3200.000000	94.790181 
3199.000000	94.726552 
3198.000000	94.659796 
3197.000000	94.597053 
3196.000000	94.540242 
3195.000000	94.483467 
3194.000000	94.419021 
3193.000000	94.345105 
3192.000000	94.266151 
3191.000000	94.186447 
3190.000000	94.106165 
3189.000000	94.023822 
3188.000000	93.939670 
3187.000000	93.854823 
3186.000000	93.769048 
3185.000000	93.681592 
3184.000000	93.593445 
3183.000000	93.507185 
3182.000000	93.424387 
3181.000000	93.343652 
3180.000000	93.261110 
3179.000000	93.173291 
3178.000000	93.080345 
3177.000000	92.985716 
3176.000000	92.891506 
3175.000000	92.795566 
3174.000000	92.695473 
3173.000000	92.594272 
3172.000000	92.498867 
3171.000000	92.412821 
3170.000000	92.334294 
3169.000000	92.261195 
3168.000000	92.193741 
3167.000000	92.129738 
3166.000000	92.061673 
3165.000000	91.982792 
3164.000000	91.894865 
3163.000000	91.807090 
3162.000000	91.727451 
3161.000000	91.655939 
3160.000000	91.584516 
3159.000000	91.502735 
3158.000000	91.406112 
3157.000000	91.301332 
3156.000000	91.201334 
3155.000000	91.112876 
3154.000000	91.030294 
3153.000000	90.943318 
3152.000000	90.848702 
3151.000000	90.750697 
3150.000000	90.651502 
3149.000000	90.546158 
3148.000000	90.428709 
3147.000000	90.300581 
3146.000000	90.169790 
3145.000000	90.041545 
3144.000000	89.911242 
3143.000000	89.768560 
3142.000000	89.608808 
3141.000000	89.438759 
3140.000000	89.269795 
3139.000000	89.106210 
3138.000000	88.942033 
3137.000000	88.768619 
3136.000000	88.582738 
3135.000000	88.387167 
3134.000000	88.186272 
3133.000000	87.982165 
3132.000000	87.773161 
3131.000000	87.554995 
3130.000000	87.325256 
3129.000000	87.087028 
3128.000000	86.845810 
3127.000000	86.602062 
3126.000000	86.349658 
3125.000000	86.083210 
3124.000000	85.804593 
3123.000000	85.520693 
3122.000000	85.237127 
3121.000000	84.955869 
3120.000000	84.676023 
3119.000000	84.393708 
3118.000000	84.102920 
3117.000000	83.800155 
3116.000000	83.488574 
3115.000000	83.176072 
3114.000000	82.869582 
3113.000000	82.572152 
3112.000000	82.283675 
3111.000000	82.001754 
3110.000000	81.722143 
3109.000000	81.440875 
3108.000000	81.157214 
3107.000000	80.873996 
3106.000000	80.594630 
3105.000000	80.319449 
3104.000000	80.044726 
3103.000000	79.765518 
3102.000000	79.480129 
3101.000000	79.191500 
3100.000000	78.903393 
3099.000000	78.616011 
3098.000000	78.326696 
3097.000000	78.034205 
3096.000000	77.740575 
3095.000000	77.449137 
3094.000000	77.162145 
3093.000000	76.879660 
3092.000000	76.598819 
3091.000000	76.314804 
3090.000000	76.024929 
3089.000000	75.731838 
3088.000000	75.441206 
3087.000000	75.157260 
3086.000000	74.882674 
3085.000000	74.621214 
3084.000000	74.376446 
3083.000000	74.147655 
3082.000000	73.930541 
3081.000000	73.722864 
3080.000000	73.526848 
3079.000000	73.346030 
3078.000000	73.183147 
3077.000000	73.041724 
3076.000000	72.925683 
3075.000000	72.835334 
3074.000000	72.766678 
3073.000000	72.716941 
3072.000000	72.688815 
3071.000000	72.686908 
3070.000000	72.711478 
3069.000000	72.757495 
3068.000000	72.818774 
3067.000000	72.891434 
3066.000000	72.974316 
3065.000000	73.068067 
3064.000000	73.173958 
3063.000000	73.292382 
3062.000000	73.421878 
3061.000000	73.559570 
3060.000000	73.702261 
3059.000000	73.846954 
3058.000000	73.990673 
3057.000000	74.130565 
3056.000000	74.265112 
3055.000000	74.395609 
3054.000000	74.525249 
3053.000000	74.654815 
3052.000000	74.779443 
3051.000000	74.892205 
3050.000000	74.992331 
3049.000000	75.088261 
3048.000000	75.191053 
3047.000000	75.305723 
3046.000000	75.429466 
3045.000000	75.555183 
3044.000000	75.674419 
3043.000000	75.779559 
3042.000000	75.867650 
3041.000000	75.942714 
3040.000000	76.012334 
3039.000000	76.082097 
3038.000000	76.154217 
3037.000000	76.229128 
3036.000000	76.304920 
3035.000000	76.376228 
3034.000000	76.437996 
3033.000000	76.491690 
3032.000000	76.545393 
3031.000000	76.606754 
3030.000000	76.677264 
3029.000000	76.753432 
3028.000000	76.831019 
3027.000000	76.907251 
3026.000000	76.981201 
3025.000000	77.053711 
3024.000000	77.126446 
3023.000000	77.200280 
3022.000000	77.274599 
3021.000000	77.347230 
3020.000000	77.414224 
3019.000000	77.471385 
3018.000000	77.518480 
3017.000000	77.561211 
3016.000000	77.605983 
3015.000000	77.652245 
3014.000000	77.692100 
3013.000000	77.717534 
3012.000000	77.725591 
3011.000000	77.715298 
3010.000000	77.680752 
3009.000000	77.607960 
3008.000000	77.478700 
3007.000000	77.281502 
3006.000000	77.026342 
3005.000000	76.753896 
3004.000000	76.528297 
3003.000000	76.412287 
3002.000000	76.438838 
3001.000000	76.595847 
3000.000000	76.832697 
2999.000000	77.083893 
2998.000000	77.295259 
2997.000000	77.436497 
2996.000000	77.494887 
2995.000000	77.460960 
2994.000000	77.319967 
2993.000000	77.054273 
2992.000000	76.654570 
2991.000000	76.136460 
2990.000000	75.554736 
2989.000000	74.999200 
2988.000000	74.562566 
2987.000000	74.298756 
2986.000000	74.205663 
2985.000000	74.247268 
2984.000000	74.390988 
2983.000000	74.624456 
2982.000000	74.941495 
2981.000000	75.319175 
2980.000000	75.713183 
2979.000000	76.076060 
2978.000000	76.379116 
2977.000000	76.617521 
2976.000000	76.798566 
2975.000000	76.929485 
2974.000000	77.016842 
2973.000000	77.073512 
2972.000000	77.121879 
2971.000000	77.188012 
2970.000000	77.289962 
2969.000000	77.428028 
2968.000000	77.585483 
2967.000000	77.741296 
2966.000000	77.884531 
2965.000000	78.016262 
2964.000000	78.138809 
2963.000000	78.246531 
2962.000000	78.327969 
2961.000000	78.373427 
2960.000000	78.377806 
2959.000000	78.338905 
2958.000000	78.256584 
2957.000000	78.133510 
2956.000000	77.975582 
2955.000000	77.793247 
2954.000000	77.603430 
2953.000000	77.426997 
2952.000000	77.280589 
2951.000000	77.170709 
2950.000000	77.095920 
2949.000000	77.051314 
2948.000000	77.028029 
2947.000000	77.011693 
2946.000000	76.986841 
2945.000000	76.944255 
2944.000000	76.883149 
2943.000000	76.807451 
2942.000000	76.721754 
2941.000000	76.629423 
2940.000000	76.532060 
2939.000000	76.430852 
2938.000000	76.328794 
2937.000000	76.229277 
2936.000000	76.131678 
2935.000000	76.031920 
2934.000000	75.929689 
2933.000000	75.831309 
2932.000000	75.742178 
2931.000000	75.659783 
2930.000000	75.578188 
2929.000000	75.496124 
2928.000000	75.415776 
2927.000000	75.336353 
2926.000000	75.255186 
2925.000000	75.174496 
2924.000000	75.101560 
2923.000000	75.041808 
2922.000000	74.995787 
2921.000000	74.962382 
2920.000000	74.940734 
2919.000000	74.929023 
2918.000000	74.925310 
2917.000000	74.929935 
2916.000000	74.944137 
2915.000000	74.966770 
2914.000000	74.995479 
2913.000000	75.030411 
2912.000000	75.072932 
2911.000000	75.120567 
2910.000000	75.166519 
2909.000000	75.204913 
2908.000000	75.234554 
2907.000000	75.257915 
2906.000000	75.278874 
2905.000000	75.300813 
2904.000000	75.323749 
2903.000000	75.343397 
2902.000000	75.354263 
2901.000000	75.354457 
2900.000000	75.344674 
2899.000000	75.324772 
2898.000000	75.294885 
2897.000000	75.258186 
2896.000000	75.218588 
2895.000000	75.175347 
2894.000000	75.123440 
2893.000000	75.059706 
2892.000000	74.985969 
2891.000000	74.906415 
2890.000000	74.824891 
2889.000000	74.744366 
2888.000000	74.665376 
2887.000000	74.584268 
2886.000000	74.496092 
2885.000000	74.400391 
2884.000000	74.302156 
2883.000000	74.206896 
2882.000000	74.116872 
2881.000000	74.031813 
2880.000000	73.950499 
2879.000000	73.871262 
2878.000000	73.793538 
2877.000000	73.719658 
2876.000000	73.653093 
2875.000000	73.594458 
2874.000000	73.540883 
2873.000000	73.489370 
2872.000000	73.438962 
2871.000000	73.389677 
2870.000000	73.340914 
2869.000000	73.291065 
2868.000000	73.237876 
2867.000000	73.180235 
2866.000000	73.120833 
2865.000000	73.065140 
2864.000000	73.015572 
2863.000000	72.968611 
2862.000000	72.920544 
2861.000000	72.874016 
2860.000000	72.835307 
2859.000000	72.807130 
2858.000000	72.788711 
2857.000000	72.781922 
2856.000000	72.791907 
2855.000000	72.820866 
2854.000000	72.865335 
2853.000000	72.920529 
2852.000000	72.983756 
2851.000000	73.052483 
2850.000000	73.122631 
2849.000000	73.191093 
2848.000000	73.258013 
2847.000000	73.324736 
2846.000000	73.390375 
2845.000000	73.451176 
2844.000000	73.502473 
2843.000000	73.541223 
2842.000000	73.567678 
2841.000000	73.584359 
2840.000000	73.592387 
2839.000000	73.589831 
2838.000000	73.575370 
2837.000000	73.552350 
2836.000000	73.526424 
2835.000000	73.499362 
2834.000000	73.467690 
2833.000000	73.427455 
2832.000000	73.378067 
2831.000000	73.321447 
2830.000000	73.259783 
2829.000000	73.194266 
2828.000000	73.123523 
2827.000000	73.042675 
2826.000000	72.946164 
2825.000000	72.832785 
2824.000000	72.706804 
2823.000000	72.573941 
2822.000000	72.437670 
2821.000000	72.299527 
2820.000000	72.160870 
2819.000000	72.022792 
2818.000000	71.885031 
2817.000000	71.746360 
2816.000000	71.607215 
2815.000000	71.472592 
2814.000000	71.351585 
2813.000000	71.252033 
2812.000000	71.174548 
2811.000000	71.112916 
2810.000000	71.060460 
2809.000000	71.014411 
2808.000000	70.974493 
2807.000000	70.940801 
2806.000000	70.914690 
2805.000000	70.898516 
2804.000000	70.892006 
2803.000000	70.891224 
2802.000000	70.893309 
2801.000000	70.899657 
2800.000000	70.911624 
2799.000000	70.925513 
2798.000000	70.935312 
2797.000000	70.939059 
2796.000000	70.940039 
2795.000000	70.943689 
2794.000000	70.956218 
2793.000000	70.983540 
2792.000000	71.026727 
2791.000000	71.079052 
2790.000000	71.131336 
2789.000000	71.180230 
2788.000000	71.228679 
2787.000000	71.279480 
2786.000000	71.332108 
2785.000000	71.385251 
2784.000000	71.438460 
2783.000000	71.490755 
2782.000000	71.540655 
2781.000000	71.588091 
2780.000000	71.633763 
2779.000000	71.676164 
2778.000000	71.711328 
2777.000000	71.735726 
2776.000000	71.747994 
2775.000000	71.748778 
2774.000000	71.740966 
2773.000000	71.728816 
2772.000000	71.713777 
2771.000000	71.691863 
2770.000000	71.658281 
2769.000000	71.614436 
2768.000000	71.567365 
2767.000000	71.522374 
2766.000000	71.479036 
2765.000000	71.434007 
2764.000000	71.384182 
2763.000000	71.326477 
2762.000000	71.257839 
2761.000000	71.177128 
2760.000000	71.085179 
2759.000000	70.982045 
2758.000000	70.865416 
2757.000000	70.731892 
2756.000000	70.578682 
2755.000000	70.404842 
2754.000000	70.212969 
2753.000000	70.009151 
2752.000000	69.798862 
2751.000000	69.582947 
2750.000000	69.359869 
2749.000000	69.131439 
2748.000000	68.903743 
2747.000000	68.682310 
2746.000000	68.468801 
2745.000000	68.262875 
2744.000000	68.065112 
2743.000000	67.877460 
2742.000000	67.702335 
2741.000000	67.541801 
2740.000000	67.396719 
2739.000000	67.266743 
2738.000000	67.151840 
2737.000000	67.052923 
2736.000000	66.969877 
2735.000000	66.900272 
2734.000000	66.841992 
2733.000000	66.796559 
2732.000000	66.768144 
2731.000000	66.759683 
2730.000000	66.771248 
2729.000000	66.801260 
2728.000000	66.847517 
2727.000000	66.907541 
2726.000000	66.979690 
2725.000000	67.063958 
2724.000000	67.160742 
2723.000000	67.269193 
2722.000000	67.387423 
2721.000000	67.513466 
2720.000000	67.645309 
2719.000000	67.781016 
2718.000000	67.919592 
2717.000000	68.060712 
2716.000000	68.203508 
2715.000000	68.347943 
2714.000000	68.498284 
2713.000000	68.662221 
2712.000000	68.844039 
2711.000000	69.040524 
2710.000000	69.246154 
2709.000000	69.460889 
2708.000000	69.690124 
2707.000000	69.938059 
2706.000000	70.203870 
2705.000000	70.483723 
2704.000000	70.773637 
2703.000000	71.070150 
2702.000000	71.370622 
2701.000000	71.673931 
2700.000000	71.979769 
2699.000000	72.286788 
2698.000000	72.591934 
2697.000000	72.891456 
2696.000000	73.182375 
2695.000000	73.464062 
2694.000000	73.739206 
2693.000000	74.011934 
2692.000000	74.283400 
2691.000000	74.549894 
2690.000000	74.806235 
2689.000000	75.049830 
2688.000000	75.280019 
2687.000000	75.495226 
2686.000000	75.693605 
2685.000000	75.876147 
2684.000000	76.046481 
2683.000000	76.207002 
2682.000000	76.357041 
2681.000000	76.495641 
2680.000000	76.624684 
2679.000000	76.748040 
2678.000000	76.867948 
2677.000000	76.982971 
2676.000000	77.089884 
2675.000000	77.187409 
2674.000000	77.277354 
2673.000000	77.361765 
2672.000000	77.440374 
2671.000000	77.512357 
2670.000000	77.579149 
2669.000000	77.642436 
2668.000000	77.699586 
2667.000000	77.744460 
2666.000000	77.773495 
2665.000000	77.788086 
2664.000000	77.790406 
2663.000000	77.780525 
2662.000000	77.758841 
2661.000000	77.727149 
2660.000000	77.684709 
2659.000000	77.626744 
2658.000000	77.549799 
2657.000000	77.455393 
2656.000000	77.345372 
2655.000000	77.217280 
2654.000000	77.068714 
2653.000000	76.903859 
2652.000000	76.731284 
2651.000000	76.556706 
2650.000000	76.381009 
2649.000000	76.202602 
2648.000000	76.017519 
2647.000000	75.820028 
2646.000000	75.608718 
2645.000000	75.390924 
2644.000000	75.176544 
2643.000000	74.968451 
2642.000000	74.762739 
2641.000000	74.556420 
2640.000000	74.350160 
2639.000000	74.145169 
2638.000000	73.942658 
2637.000000	73.745287 
2636.000000	73.554189 
2635.000000	73.365585 
2634.000000	73.175289 
2633.000000	72.985443 
2632.000000	72.801236 
2631.000000	72.621331 
2630.000000	72.437052 
2629.000000	72.241593 
2628.000000	72.035863 
2627.000000	71.825418 
2626.000000	71.616074 
2625.000000	71.412255 
2624.000000	71.214613 
2623.000000	71.018347 
2622.000000	70.817391 
2621.000000	70.610407 
2620.000000	70.399739 
2619.000000	70.185961 
2618.000000	69.967871 
2617.000000	69.746956 
2616.000000	69.526691 
2615.000000	69.306893 
2614.000000	69.082612 
2613.000000	68.848802 
2612.000000	68.603201 
2611.000000	68.345837 
2610.000000	68.080085 
2609.000000	67.813984 
2608.000000	67.556480 
2607.000000	67.312129 
2606.000000	67.082496 
2605.000000	66.872305 
2604.000000	66.690899 
2603.000000	66.547384 
2602.000000	66.445934 
2601.000000	66.384614 
2600.000000	66.357160 
2599.000000	66.357984 
2598.000000	66.387568 
2597.000000	66.450992 
2596.000000	66.549803 
2595.000000	66.678470 
2594.000000	66.830908 
2593.000000	67.006984 
2592.000000	67.210088 
2591.000000	67.441630 
2590.000000	67.700093 
2589.000000	67.981057 
2588.000000	68.275070 
2587.000000	68.570392 
2586.000000	68.862634 
2585.000000	69.158187 
2584.000000	69.463469 
2583.000000	69.773976 
2582.000000	70.078948 
2581.000000	70.373993 
2580.000000	70.663442 
2579.000000	70.951821 
2578.000000	71.238258 
2577.000000	71.518756 
2576.000000	71.789643 
2575.000000	72.049136 
2574.000000	72.298648 
2573.000000	72.541240 
2572.000000	72.775201 
2571.000000	72.990501 
2570.000000	73.175881 
2569.000000	73.329933 
2568.000000	73.463361 
2567.000000	73.590955 
2566.000000	73.721674 
2565.000000	73.852649 
2564.000000	73.970293 
2563.000000	74.061411 
2562.000000	74.127082 
2561.000000	74.182452 
2560.000000	74.239709 
2559.000000	74.295775 
2558.000000	74.340683 
2557.000000	74.372012 
2556.000000	74.393958 
2555.000000	74.406681 
2554.000000	74.405433 
2553.000000	74.388788 
2552.000000	74.360216 
2551.000000	74.322015 
2550.000000	74.273846 
2549.000000	74.216153 
2548.000000	74.148931 
2547.000000	74.068369 
2546.000000	73.971450 
2545.000000	73.863638 
2544.000000	73.756013 
2543.000000	73.654856 
2542.000000	73.559304 
2541.000000	73.468682 
2540.000000	73.386575 
2539.000000	73.317711 
2538.000000	73.265611 
2537.000000	73.232978 
2536.000000	73.219672 
2535.000000	73.220203 
2534.000000	73.227030 
2533.000000	73.236456 
2532.000000	73.249095 
2531.000000	73.266250 
2530.000000	73.288399 
2529.000000	73.314830 
2528.000000	73.342080 
2527.000000	73.366021 
2526.000000	73.388332 
2525.000000	73.415929 
2524.000000	73.449173 
2523.000000	73.475834 
2522.000000	73.484307 
2521.000000	73.480594 
2520.000000	73.485835 
2519.000000	73.518939 
2518.000000	73.586959 
2517.000000	73.688633 
2516.000000	73.818573 
2515.000000	73.968095 
2514.000000	74.129438 
2513.000000	74.301629 
2512.000000	74.488964 
2511.000000	74.693979 
2510.000000	74.915270 
2509.000000	75.150838 
2508.000000	75.399145 
2507.000000	75.657322 
2506.000000	75.921965 
2505.000000	76.190996 
2504.000000	76.461584 
2503.000000	76.727631 
2502.000000	76.982905 
2501.000000	77.225679 
2500.000000	77.457562 
2499.000000	77.679591 
2498.000000	77.892143 
2497.000000	78.095369 
2496.000000	78.285553 
2495.000000	78.454540 
2494.000000	78.598716 
2493.000000	78.726602 
2492.000000	78.851387 
2491.000000	78.976505 
2490.000000	79.093565 
2489.000000	79.193846 
2488.000000	79.277051 
2487.000000	79.349439 
2486.000000	79.417922 
2485.000000	79.485525 
2484.000000	79.549131 
2483.000000	79.603370 
2482.000000	79.650307 
2481.000000	79.702279 
2480.000000	79.770090 
2479.000000	79.851439 
2478.000000	79.936972 
2477.000000	80.024880 
2476.000000	80.122090 
2475.000000	80.232567 
2474.000000	80.352752 
2473.000000	80.479464 
2472.000000	80.615354 
2471.000000	80.764201 
2470.000000	80.925272 
2469.000000	81.093605 
2468.000000	81.261995 
2467.000000	81.421979 
2466.000000	81.566828 
2465.000000	81.695436 
2464.000000	81.812046 
2463.000000	81.923119 
2462.000000	82.035943 
2461.000000	82.156759 
2460.000000	82.285308 
2459.000000	82.412669 
2458.000000	82.528863 
2457.000000	82.631665 
2456.000000	82.725055 
2455.000000	82.812446 
2454.000000	82.896616 
2453.000000	82.983366 
2452.000000	83.078236 
2451.000000	83.180283 
2450.000000	83.284601 
2449.000000	83.389799 
2448.000000	83.497300 
2447.000000	83.604481 
2446.000000	83.704906 
2445.000000	83.795372 
2444.000000	83.877521 
2443.000000	83.952970 
2442.000000	84.021923 
2441.000000	84.085844 
2440.000000	84.146414 
2439.000000	84.202859 
2438.000000	84.255638 
2437.000000	84.311666 
2436.000000	84.380065 
2435.000000	84.462849 
2434.000000	84.554012 
2433.000000	84.646084 
2432.000000	84.733085 
2431.000000	84.809998 
2430.000000	84.876073 
2429.000000	84.937525 
2428.000000	85.001244 
2427.000000	85.067309 
2426.000000	85.132932 
2425.000000	85.200751 
2424.000000	85.276273 
2423.000000	85.359529 
2422.000000	85.446807 
2421.000000	85.538624 
2420.000000	85.637879 
2419.000000	85.741606 
2418.000000	85.842986 
2417.000000	85.940838 
2416.000000	86.038786 
2415.000000	86.135298 
2414.000000	86.223015 
2413.000000	86.298195 
2412.000000	86.362717 
2411.000000	86.416828 
2410.000000	86.458957 
2409.000000	86.493380 
2408.000000	86.527908 
2407.000000	86.561328 
2406.000000	86.583130 
2405.000000	86.590687 
2404.000000	86.598778 
2403.000000	86.626309 
2402.000000	86.678971 
2401.000000	86.749205 
2400.000000	86.827611 
2399.000000	86.909060 
2398.000000	86.991069 
2397.000000	87.071566 
2396.000000	87.148232 
2395.000000	87.218318 
2394.000000	87.279822 
2393.000000	87.333276 
2392.000000	87.381123 
2391.000000	87.426144 
2390.000000	87.472671 
2389.000000	87.527413 
2388.000000	87.595019 
2387.000000	87.673395 
2386.000000	87.756617 
2385.000000	87.841478 
2384.000000	87.928102 
2383.000000	88.015999 
2382.000000	88.103825 
2381.000000	88.191333 
2380.000000	88.275978 
2379.000000	88.349444 
2378.000000	88.404803 
2377.000000	88.445684 
2376.000000	88.482261 
2375.000000	88.518523 
2374.000000	88.555080 
2373.000000	88.602084 
2372.000000	88.672821 
2371.000000	88.762071 
2370.000000	88.846391 
2369.000000	88.908099 
2368.000000	88.945063 
2367.000000	88.958515 
2366.000000	88.953303 
2365.000000	88.950121 
2364.000000	88.980248 
2363.000000	89.059042 
2362.000000	89.164423 
2361.000000	89.264708 
2360.000000	89.340393 
2359.000000	89.367440 
2358.000000	89.340718 
2357.000000	89.287871 
2356.000000	89.260159 
2355.000000	89.293558 
2354.000000	89.380785 
2353.000000	89.489889 
2352.000000	89.573108 
2351.000000	89.614284 
2350.000000	89.641485 
2349.000000	89.688992 
2348.000000	89.771203 
2347.000000	89.848069 
2346.000000	89.873905 
2345.000000	89.841354 
2344.000000	89.802277 
2343.000000	89.805483 
2342.000000	89.829251 
2341.000000	89.848638 
2340.000000	89.863693 
2339.000000	89.891060 
2338.000000	89.922623 
2337.000000	89.940457 
2336.000000	89.937900 
2335.000000	89.934582 
2334.000000	89.946913 
2333.000000	89.984812 
2332.000000	90.030601 
2331.000000	90.066948 
2330.000000	90.084246 
2329.000000	90.076607 
2328.000000	90.048732 
2327.000000	89.989769 
2326.000000	89.910369 
2325.000000	89.834685 
2324.000000	89.794741 
2323.000000	89.801514 
2322.000000	89.826921 
2321.000000	89.848461 
2320.000000	89.856856 
2319.000000	89.865890 
2318.000000	89.882045 
2317.000000	89.913290 
2316.000000	89.958058 
2315.000000	90.006514 
2314.000000	90.040840 
2313.000000	90.051548 
2312.000000	90.041313 
2311.000000	90.014793 
2310.000000	89.976491 
2309.000000	89.934493 
2308.000000	89.900569 
2307.000000	89.876079 
2306.000000	89.850288 
2305.000000	89.812427 
2304.000000	89.760250 
2303.000000	89.698749 
2302.000000	89.634030 
2301.000000	89.574772 
2300.000000	89.529455 
2299.000000	89.501040 
2298.000000	89.488370 
2297.000000	89.489168 
2296.000000	89.501624 
2295.000000	89.519432 
2294.000000	89.540586 
2293.000000	89.570571 
2292.000000	89.616795 
2291.000000	89.674428 
2290.000000	89.731762 
2289.000000	89.783779 
2288.000000	89.835077 
2287.000000	89.888606 
2286.000000	89.942108 
2285.000000	89.994896 
2284.000000	90.048825 
2283.000000	90.103336 
2282.000000	90.157197 
2281.000000	90.214139 
2280.000000	90.273745 
2279.000000	90.320869 
2278.000000	90.337094 
2277.000000	90.325484 
2276.000000	90.306907 
2275.000000	90.290868 
2274.000000	90.265352 
2273.000000	90.218710 
2272.000000	90.156534 
2271.000000	90.090289 
2270.000000	90.024133 
2269.000000	89.959897 
2268.000000	89.904518 
2267.000000	89.866449 
2266.000000	89.851760 
2265.000000	89.865602 
2264.000000	89.910382 
2263.000000	89.980456 
2262.000000	90.066333 
2261.000000	90.160492 
2260.000000	90.255160 
2259.000000	90.344168 
2258.000000	90.437411 
2257.000000	90.563029 
2256.000000	90.734225 
2255.000000	90.922365 
2254.000000	91.082654 
2253.000000	91.203305 
2252.000000	91.307664 
2251.000000	91.413257 
2250.000000	91.514373 
2249.000000	91.603093 
2248.000000	91.681154 
2247.000000	91.747426 
2246.000000	91.797397 
2245.000000	91.837827 
2244.000000	91.881303 
2243.000000	91.925423 
2242.000000	91.961001 
2241.000000	92.000300 
2240.000000	92.069315 
2239.000000	92.167474 
2238.000000	92.260565 
2237.000000	92.318740 
2236.000000	92.338964 
2235.000000	92.330036 
2234.000000	92.305630 
2233.000000	92.296038 
2232.000000	92.332373 
2231.000000	92.407994 
2230.000000	92.482859 
2229.000000	92.534609 
2228.000000	92.577974 
2227.000000	92.626877 
2226.000000	92.669576 
2225.000000	92.693268 
2224.000000	92.703825 
2223.000000	92.708873 
2222.000000	92.708678 
2221.000000	92.712724 
2220.000000	92.735262 
2219.000000	92.766302 
2218.000000	92.780195 
2217.000000	92.781478 
2216.000000	92.804552 
2215.000000	92.855002 
2214.000000	92.891764 
2213.000000	92.887249 
2212.000000	92.866942 
2211.000000	92.865296 
2210.000000	92.877828 
2209.000000	92.884058 
2208.000000	92.886103 
2207.000000	92.894403 
2206.000000	92.900014 
2205.000000	92.890212 
2204.000000	92.873567 
2203.000000	92.867335 
2202.000000	92.876785 
2201.000000	92.900881 
2200.000000	92.935212 
2199.000000	92.955854 
2198.000000	92.928248 
2197.000000	92.851011 
2196.000000	92.766292 
2195.000000	92.711126 
2194.000000	92.685072 
2193.000000	92.676577 
2192.000000	92.685242 
2191.000000	92.699089 
2190.000000	92.685367 
2189.000000	92.630787 
2188.000000	92.563461 
2187.000000	92.512332 
2186.000000	92.474366 
2185.000000	92.443539 
2184.000000	92.437427 
2183.000000	92.464370 
2182.000000	92.492366 
2181.000000	92.483011 
2180.000000	92.436083 
2179.000000	92.375551 
2178.000000	92.314056 
2177.000000	92.252208 
2176.000000	92.189286 
2175.000000	92.116858 
2174.000000	92.024960 
2173.000000	91.927125 
2172.000000	91.851873 
2171.000000	91.799684 
2170.000000	91.740138 
2169.000000	91.662056 
2168.000000	91.589605 
2167.000000	91.531203 
2166.000000	91.450674 
2165.000000	91.316666 
2164.000000	91.152279 
2163.000000	91.015275 
2162.000000	90.962411 
2161.000000	91.042994 
2160.000000	91.266151 
2159.000000	91.539942 
2158.000000	91.708285 
2157.000000	91.695518 
2156.000000	91.559113 
2155.000000	91.385296 
2154.000000	91.202083 
2153.000000	91.003507 
2152.000000	90.794159 
2151.000000	90.581927 
2150.000000	90.366116 
2149.000000	90.157520 
2148.000000	89.978777 
2147.000000	89.826362 
2146.000000	89.663577 
2145.000000	89.468396 
2144.000000	89.257246 
2143.000000	89.045106 
2142.000000	88.815379 
2141.000000	88.550487 
2140.000000	88.265435 
2139.000000	87.991336 
2138.000000	87.747498 
2137.000000	87.543572 
2136.000000	87.384050 
2135.000000	87.253203 
2134.000000	87.115973 
2133.000000	86.951815 
2132.000000	86.773814 
2131.000000	86.603326 
2130.000000	86.442176 
2129.000000	86.281439 
2128.000000	86.123864 
2127.000000	85.984247 
2126.000000	85.874026 
2125.000000	85.793901 
2124.000000	85.736814 
2123.000000	85.693083 
2122.000000	85.657153 
2121.000000	85.633182 
2120.000000	85.630982 
2119.000000	85.655641 
2118.000000	85.703932 
2117.000000	85.767607 
2116.000000	85.834894 
2115.000000	85.894119 
2114.000000	85.945664 
2113.000000	86.007551 
2112.000000	86.098665 
2111.000000	86.218096 
2110.000000	86.350308 
2109.000000	86.486352 
2108.000000	86.627964 
2107.000000	86.775040 
2106.000000	86.923863 
2105.000000	87.075364 
2104.000000	87.229798 
2103.000000	87.375563 
2102.000000	87.500894 
2101.000000	87.616232 
2100.000000	87.746361 
2099.000000	87.898925 
2098.000000	88.059333 
2097.000000	88.217890 
2096.000000	88.380141 
2095.000000	88.545420 
2094.000000	88.697952 
2093.000000	88.829337 
2092.000000	88.950913 
2091.000000	89.073806 
2090.000000	89.192867 
2089.000000	89.300500 
2088.000000	89.403397 
2087.000000	89.515635 
2086.000000	89.644192 
2085.000000	89.786419 
2084.000000	89.932402 
2083.000000	90.068392 
2082.000000	90.189437 
2081.000000	90.307995 
2080.000000	90.435798 
2079.000000	90.560544 
2078.000000	90.661456 
2077.000000	90.745822 
2076.000000	90.842672 
2075.000000	90.957283 
2074.000000	91.061622 
2073.000000	91.138457 
2072.000000	91.205611 
2071.000000	91.284134 
2070.000000	91.370243 
2069.000000	91.452423 
2068.000000	91.530388 
2067.000000	91.602814 
2066.000000	91.660535 
2065.000000	91.705979 
2064.000000	91.755112 
2063.000000	91.807662 
2062.000000	91.842109 
2061.000000	91.851463 
2060.000000	91.854279 
2059.000000	91.857490 
2058.000000	91.840904 
2057.000000	91.795445 
2056.000000	91.743022 
2055.000000	91.696900 
2054.000000	91.634520 
2053.000000	91.537059 
2052.000000	91.430642 
2051.000000	91.363965 
2050.000000	91.365030 
2049.000000	91.434930 
2048.000000	91.559620 
2047.000000	91.707763 
2046.000000	91.840169 
2045.000000	91.946214 
2044.000000	92.051974 
2043.000000	92.172879 
2042.000000	92.282283 
2041.000000	92.347250 
2040.000000	92.369482 
2039.000000	92.370292 
2038.000000	92.366725 
2037.000000	92.385306 
2036.000000	92.462794 
2035.000000	92.603523 
2034.000000	92.763637 
2033.000000	92.899209 
2032.000000	92.999514 
2031.000000	93.059729 
2030.000000	93.069902 
2029.000000	93.055442 
2028.000000	93.073824 
2027.000000	93.138693 
2026.000000	93.195186 
2025.000000	93.201329 
2024.000000	93.186547 
2023.000000	93.196761 
2022.000000	93.232813 
2021.000000	93.280245 
2020.000000	93.349520 
2019.000000	93.443330 
2018.000000	93.524369 
2017.000000	93.559988 
2016.000000	93.565449 
2015.000000	93.564302 
2014.000000	93.547355 
2013.000000	93.510995 
2012.000000	93.492425 
2011.000000	93.524283 
2010.000000	93.592276 
2009.000000	93.679396 
2008.000000	93.811332 
2007.000000	94.003611 
2006.000000	94.194182 
2005.000000	94.290737 
2004.000000	94.272518 
2003.000000	94.198654 
2002.000000	94.134761 
2001.000000	94.107091 
2000.000000	94.108442 
1999.000000	94.114592 
1998.000000	94.103291 
1997.000000	94.080608 
1996.000000	94.079360 
1995.000000	94.118619 
1994.000000	94.181244 
1993.000000	94.241601 
1992.000000	94.292862 
1991.000000	94.331360 
1990.000000	94.340644 
1989.000000	94.316352 
1988.000000	94.284548 
1987.000000	94.271470 
1986.000000	94.272079 
1985.000000	94.265914 
1984.000000	94.246315 
1983.000000	94.220227 
1982.000000	94.202081 
1981.000000	94.219392 
1980.000000	94.296432 
1979.000000	94.414704 
1978.000000	94.519406 
1977.000000	94.587677 
1976.000000	94.652543 
1975.000000	94.737020 
1974.000000	94.812871 
1973.000000	94.849625 
1972.000000	94.858688 
1971.000000	94.862207 
1970.000000	94.856418 
1969.000000	94.832024 
1968.000000	94.798649 
1967.000000	94.766686 
1966.000000	94.734476 
1965.000000	94.711238 
1964.000000	94.719645 
1963.000000	94.759942 
1962.000000	94.801650 
1961.000000	94.823348 
1960.000000	94.832465 
1959.000000	94.836151 
1958.000000	94.827330 
1957.000000	94.811008 
1956.000000	94.809033 
1955.000000	94.826697 
1954.000000	94.844143 
1953.000000	94.851660 
1952.000000	94.864320 
1951.000000	94.892966 
1950.000000	94.930071 
1949.000000	94.969596 
1948.000000	95.011222 
1947.000000	95.040861 
1946.000000	95.042053 
1945.000000	95.032112 
1944.000000	95.049521 
1943.000000	95.095950 
1942.000000	95.130836 
1941.000000	95.138737 
1940.000000	95.152882 
1939.000000	95.195570 
1938.000000	95.245027 
1937.000000	95.278107 
1936.000000	95.306581 
1935.000000	95.347880 
1934.000000	95.390249 
1933.000000	95.414073 
1932.000000	95.422347 
1931.000000	95.428349 
1930.000000	95.436450 
1929.000000	95.450806 
1928.000000	95.481617 
1927.000000	95.524096 
1926.000000	95.555373 
1925.000000	95.564854 
1924.000000	95.564725 
1923.000000	95.561995 
1922.000000	95.546337 
1921.000000	95.520436 
1920.000000	95.510498 
1919.000000	95.530694 
1918.000000	95.562024 
1917.000000	95.584713 
1916.000000	95.607251 
1915.000000	95.640477 
1914.000000	95.673718 
1913.000000	95.697551 
1912.000000	95.721199 
1911.000000	95.749726 
1910.000000	95.766321 
1909.000000	95.757928 
1908.000000	95.740093 
1907.000000	95.733500 
1906.000000	95.738904 
1905.000000	95.750974 
1904.000000	95.771989 
1903.000000	95.798731 
1902.000000	95.815362 
1901.000000	95.815525 
1900.000000	95.813683 
1899.000000	95.821917 
1898.000000	95.837775 
1897.000000	95.863727 
1896.000000	95.910683 
1895.000000	95.970179 
1894.000000	96.011158 
1893.000000	96.022704 
1892.000000	96.030754 
1891.000000	96.057728 
1890.000000	96.091995 
1889.000000	96.114781 
1888.000000	96.133122 
1887.000000	96.160269 
1886.000000	96.189296 
1885.000000	96.210023 
1884.000000	96.226735 
1883.000000	96.240573 
1882.000000	96.237618 
1881.000000	96.214463 
1880.000000	96.194377 
1879.000000	96.196718 
1878.000000	96.210683 
1877.000000	96.217905 
1876.000000	96.219091 
1875.000000	96.220874 
1874.000000	96.217666 
1873.000000	96.205057 
1872.000000	96.191913 
1871.000000	96.183082 
1870.000000	96.167776 
1869.000000	96.143064 
1868.000000	96.129524 
1867.000000	96.139168 
1866.000000	96.153324 
1865.000000	96.153068 
1864.000000	96.143886 
1863.000000	96.135676 
1862.000000	96.122077 
1861.000000	96.097122 
1860.000000	96.073502 
1859.000000	96.064197 
1858.000000	96.063193 
1857.000000	96.061042 
1856.000000	96.059777 
1855.000000	96.057049 
1854.000000	96.040387 
1853.000000	96.012731 
1852.000000	96.003118 
1851.000000	96.030151 
1850.000000	96.073682 
1849.000000	96.103527 
1848.000000	96.115871 
1847.000000	96.124988 
1846.000000	96.136042 
1845.000000	96.147984 
1844.000000	96.167857 
1843.000000	96.200398 
1842.000000	96.236769 
1841.000000	96.267663 
1840.000000	96.296255 
1839.000000	96.328928 
1838.000000	96.365156 
1837.000000	96.404506 
1836.000000	96.449586 
1835.000000	96.493196 
1834.000000	96.518573 
1833.000000	96.522533 
1832.000000	96.523908 
1831.000000	96.539078 
1830.000000	96.561359 
1829.000000	96.581039 
1828.000000	96.607463 
1827.000000	96.647612 
1826.000000	96.684729 
1825.000000	96.701102 
1824.000000	96.702876 
1823.000000	96.703873 
1822.000000	96.702104 
1821.000000	96.695607 
1820.000000	96.700626 
1819.000000	96.727281 
1818.000000	96.754399 
1817.000000	96.753118 
1816.000000	96.724463 
1815.000000	96.691688 
1814.000000	96.665665 
1813.000000	96.643634 
1812.000000	96.627854 
1811.000000	96.621091 
1810.000000	96.613443 
1809.000000	96.594740 
1808.000000	96.573959 
1807.000000	96.565491 
1806.000000	96.567421 
1805.000000	96.570327 
1804.000000	96.572656 
1803.000000	96.575071 
1802.000000	96.569679 
1801.000000	96.555365 
1800.000000	96.551256 
1799.000000	96.570155 
1798.000000	96.595619 
1797.000000	96.604574 
1796.000000	96.597154 
1795.000000	96.587113 
1794.000000	96.578927 
1793.000000	96.572078 
1792.000000	96.574054 
1791.000000	96.586060 
1790.000000	96.592765 
1789.000000	96.585109 
1788.000000	96.575997 
1787.000000	96.579833 
1786.000000	96.589051 
1785.000000	96.587417 
1784.000000	96.577597 
1783.000000	96.574944 
1782.000000	96.577509 
1781.000000	96.570713 
1780.000000	96.552680 
1779.000000	96.530083 
1778.000000	96.500604 
1777.000000	96.454178 
1776.000000	96.391541 
1775.000000	96.322677 
1774.000000	96.254889 
1773.000000	96.196383 
1772.000000	96.157975 
1771.000000	96.138910 
1770.000000	96.124821 
1769.000000	96.101096 
1768.000000	96.061786 
1767.000000	96.008051 
1766.000000	95.939395 
1765.000000	95.855890 
1764.000000	95.762884 
1763.000000	95.668742 
1762.000000	95.578329 
1761.000000	95.497863 
1760.000000	95.436813 
1759.000000	95.390363 
1758.000000	95.334889 
1757.000000	95.251799 
1756.000000	95.152744 
1755.000000	95.062741 
1754.000000	94.988407 
1753.000000	94.922186 
1752.000000	94.864358 
1751.000000	94.818581 
1750.000000	94.780195 
1749.000000	94.742736 
1748.000000	94.705344 
1747.000000	94.670058 
1746.000000	94.635883 
1745.000000	94.604093 
1744.000000	94.577845 
1743.000000	94.555105 
1742.000000	94.535524 
1741.000000	94.533520 
1740.000000	94.566553 
1739.000000	94.624860 
1738.000000	94.684301 
1737.000000	94.748808 
1736.000000	94.861474 
1735.000000	95.067222 
1734.000000	95.331077 
1733.000000	95.562074 
1732.000000	95.742781 
1731.000000	95.900304 
1730.000000	96.034638 
1729.000000	96.148584 
1728.000000	96.265959 
1727.000000	96.407371 
1726.000000	96.562235 
1725.000000	96.709496 
1724.000000	96.834193 
1723.000000	96.918692 
1722.000000	96.947487 
1721.000000	96.928945 
1720.000000	96.895836 
1719.000000	96.873989 
1718.000000	96.857776 
1717.000000	96.837519 
1716.000000	96.839386 
1715.000000	96.876130 
1714.000000	96.908168 
1713.000000	96.908230 
1712.000000	96.896640 
1711.000000	96.892692 
1710.000000	96.877666 
1709.000000	96.832323 
1708.000000	96.780384 
1707.000000	96.755278 
1706.000000	96.741711 
1705.000000	96.695848 
1704.000000	96.620492 
1703.000000	96.549427 
1702.000000	96.489562 
1701.000000	96.422409 
1700.000000	96.347416 
1699.000000	96.295442 
1698.000000	96.268909 
1697.000000	96.236643 
1696.000000	96.188041 
1695.000000	96.135222 
1694.000000	96.083501 
1693.000000	96.030565 
1692.000000	95.977607 
1691.000000	95.925652 
1690.000000	95.856670 
1689.000000	95.749421 
1688.000000	95.615987 
1687.000000	95.481081 
1686.000000	95.349966 
1685.000000	95.231332 
1684.000000	95.147392 
1683.000000	95.091840 
1682.000000	95.033935 
1681.000000	94.948761 
1680.000000	94.828227 
1679.000000	94.685508 
1678.000000	94.523499 
1677.000000	94.336608 
1676.000000	94.126361 
1675.000000	93.900410 
1674.000000	93.658558 
1673.000000	93.397677 
1672.000000	93.109738 
1671.000000	92.769787 
1670.000000	92.346022 
1669.000000	91.847966 
1668.000000	91.342307 
1667.000000	90.870497 
1666.000000	90.399129 
1665.000000	89.871906 
1664.000000	89.273216 
1663.000000	88.640524 
1662.000000	88.022406 
1661.000000	87.443372 
1660.000000	86.907467 
1659.000000	86.406488 
1658.000000	85.923960 
1657.000000	85.461665 
1656.000000	85.031819 
1655.000000	84.622543 
1654.000000	84.170803 
1653.000000	83.666586 
1652.000000	83.252211 
1651.000000	83.022012 
1650.000000	82.871316 
1649.000000	82.641955 
1648.000000	82.263976 
1647.000000	81.764760 
1646.000000	81.219534 
1645.000000	80.680180 
1644.000000	80.177091 
1643.000000	79.704007 
1642.000000	79.215897 
1641.000000	78.680766 
1640.000000	78.140632 
1639.000000	77.652918 
1638.000000	77.185929 
1637.000000	76.628789 
1636.000000	75.937315 
1635.000000	75.210706 
1634.000000	74.539655 
1633.000000	73.896559 
1632.000000	73.224357 
1631.000000	72.499004 
1630.000000	71.695633 
1629.000000	70.798329 
1628.000000	69.863759 
1627.000000	68.997751 
1626.000000	68.231508 
1625.000000	67.503097 
1624.000000	66.774009 
1623.000000	66.097709 
1622.000000	65.545556 
1621.000000	65.127946 
1620.000000	64.823536 
1619.000000	64.614581 
1618.000000	64.478364 
1617.000000	64.410760 
1616.000000	64.465865 
1615.000000	64.692031 
1614.000000	65.053357 
1613.000000	65.475274 
1612.000000	65.907622 
1611.000000	66.301955 
1610.000000	66.568690 
1609.000000	66.606505 
1608.000000	66.358556 
1607.000000	65.803765 
1606.000000	64.919298 
1605.000000	63.687549 
1604.000000	62.128282 
1603.000000	60.290657 
1602.000000	58.212879 
1601.000000	55.915304 
1600.000000	53.438200 
1599.000000	50.843981 
1598.000000	48.161933 
1597.000000	45.380608 
1596.000000	42.532311 
1595.000000	39.738878 
1594.000000	37.126880 
1593.000000	34.749983 
1592.000000	32.643791 
1591.000000	30.877690 
1590.000000	29.482024 
1589.000000	28.398881 
1588.000000	27.573144 
1587.000000	27.015647 
1586.000000	26.719852 
1585.000000	26.607611 
1584.000000	26.622194 
1583.000000	26.787126 
1582.000000	27.111545 
1581.000000	27.526461 
1580.000000	27.977734 
1579.000000	28.493560 
1578.000000	29.106329 
1577.000000	29.768093 
1576.000000	30.407143 
1575.000000	31.029104 
1574.000000	31.660921 
1573.000000	32.275936 
1572.000000	32.852076 
1571.000000	33.420045 
1570.000000	34.004548 
1569.000000	34.569733 
1568.000000	35.099996 
1567.000000	35.654003 
1566.000000	36.271095 
1565.000000	36.913085 
1564.000000	37.535019 
1563.000000	38.155703 
1562.000000	38.816594 
1561.000000	39.527062 
1560.000000	40.299039 
1559.000000	41.153049 
1558.000000	42.012795 
1557.000000	42.801006 
1556.000000	43.556837 
1555.000000	44.339367 
1554.000000	45.154582 
1553.000000	45.945511 
1552.000000	46.681182 
1551.000000	47.383031 
1550.000000	48.059964 
1549.000000	48.679379 
1548.000000	49.226666 
1547.000000	49.730644 
1546.000000	50.206566 
1545.000000	50.624050 
1544.000000	50.955303 
1543.000000	51.214755 
1542.000000	51.411491 
1541.000000	51.498722 
1540.000000	51.436615 
1539.000000	51.289655 
1538.000000	51.167160 
1537.000000	51.087658 
1536.000000	50.978455 
1535.000000	50.752379 
1534.000000	50.369851 
1533.000000	49.911398 
1532.000000	49.522809 
1531.000000	49.271661 
1530.000000	49.134617 
1529.000000	49.073226 
1528.000000	49.073255 
1527.000000	49.147531 
1526.000000	49.308523 
1525.000000	49.538859 
1524.000000	49.797702 
1523.000000	50.047655 
1522.000000	50.269281 
1521.000000	50.477691 
1520.000000	50.729423 
1519.000000	51.073763 
1518.000000	51.509005 
1517.000000	51.998545 
1516.000000	52.519987 
1515.000000	53.097047 
1514.000000	53.757238 
1513.000000	54.480725 
1512.000000	55.222884 
1511.000000	55.966457 
1510.000000	56.721344 
1509.000000	57.482578 
1508.000000	58.234341 
1507.000000	58.997514 
1506.000000	59.781408 
1505.000000	60.546085 
1504.000000	61.279890 
1503.000000	62.007318 
1502.000000	62.746767 
1501.000000	63.479172 
1500.000000	64.174338 
1499.000000	64.847941 
1498.000000	65.547703 
1497.000000	66.276948 
1496.000000	66.997946 
1495.000000	67.709903 
1494.000000	68.431708 
1493.000000	69.146113 
1492.000000	69.837012 
1491.000000	70.533396 
1490.000000	71.250395 
1489.000000	71.927609 
1488.000000	72.515909 
1487.000000	73.043110 
1486.000000	73.529453 
1485.000000	73.941043 
1484.000000	74.261974 
1483.000000	74.538964 
1482.000000	74.822033 
1481.000000	75.107688 
1480.000000	75.373794 
1479.000000	75.621943 
1478.000000	75.837581 
1477.000000	75.967028 
1476.000000	75.983956 
1475.000000	75.921186 
1474.000000	75.783999 
1473.000000	75.516960 
1472.000000	75.134406 
1471.000000	74.754265 
1470.000000	74.428735 
1469.000000	74.095727 
1468.000000	73.694289 
1467.000000	73.207336 
1466.000000	72.605715 
1465.000000	71.848308 
1464.000000	70.978520 
1463.000000	70.094932 
1462.000000	69.198643 
1461.000000	68.193337 
1460.000000	66.958846 
1459.000000	65.328302 
1458.000000	63.058619 
1457.000000	60.236568 
1456.000000	57.623037 
1455.000000	55.857788 
1454.000000	54.870196 
1453.000000	54.370613 
1452.000000	54.219522 
1451.000000	54.386447 
1450.000000	54.869267 
1449.000000	55.703940 
1448.000000	56.958226 
1447.000000	58.627217 
1446.000000	60.604342 
1445.000000	62.752668 
1444.000000	64.941656 
1443.000000	67.046893 
1442.000000	68.971488 
1441.000000	70.649732 
1440.000000	72.053842 
1439.000000	73.227133 
1438.000000	74.274748 
1437.000000	75.248561 
1436.000000	76.077043 
1435.000000	76.718671 
1434.000000	77.245058 
1433.000000	77.706205 
1432.000000	78.075450 
1431.000000	78.326286 
1430.000000	78.476152 
1429.000000	78.531953 
1428.000000	78.467351 
1427.000000	78.279453 
1426.000000	77.975551 
1425.000000	77.509637 
1424.000000	76.830061 
1423.000000	75.977214 
1422.000000	74.990230 
1421.000000	73.731186 
1420.000000	71.942082 
1419.000000	69.577059 
1418.000000	66.907284 
1417.000000	64.118151 
1416.000000	61.152949 
1415.000000	57.976975 
1414.000000	54.687173 
1413.000000	51.448341 
1412.000000	48.494387 
1411.000000	46.122005 
1410.000000	44.544667 
1409.000000	43.812244 
1408.000000	43.911961 
1407.000000	44.806684 
1406.000000	46.360865 
1405.000000	48.362497 
1404.000000	50.628763 
1403.000000	53.034336 
1402.000000	55.503356 
1401.000000	58.027847 
1400.000000	60.613008 
1399.000000	63.151822 
1398.000000	65.465370 
1397.000000	67.495338 
1396.000000	69.321494 
1395.000000	71.002030 
1394.000000	72.499599 
1393.000000	73.765157 
1392.000000	74.810276 
1391.000000	75.676254 
1390.000000	76.391878 
1389.000000	76.960750 
1388.000000	77.357266 
1387.000000	77.533401 
1386.000000	77.439468 
1385.000000	77.047756 
1384.000000	76.402628 
1383.000000	75.695808 
1382.000000	75.239574 
1381.000000	75.273690 
1380.000000	75.799558 
1379.000000	76.613163 
1378.000000	77.468369 
1377.000000	78.215954 
1376.000000	78.824319 
1375.000000	79.314708 
1374.000000	79.700468 
1373.000000	79.970869 
1372.000000	80.105078 
1371.000000	80.077755 
1370.000000	79.842408 
1369.000000	79.322956 
1368.000000	78.452496 
1367.000000	77.229031 
1366.000000	75.690598 
1365.000000	73.817884 
1364.000000	71.506657 
1363.000000	68.682913 
1362.000000	65.431995 
1361.000000	61.947498 
1360.000000	58.383117 
1359.000000	54.828214 
1358.000000	51.369654 
1357.000000	48.118004 
1356.000000	45.216245 
1355.000000	42.852241 
1354.000000	41.220730 
1353.000000	40.446285 
1352.000000	40.557244 
1351.000000	41.505403 
1350.000000	43.160234 
1349.000000	45.305058 
1348.000000	47.698301 
1347.000000	50.152612 
1346.000000	52.552526 
1345.000000	54.829380 
1344.000000	56.954955 
1343.000000	58.949389 
1342.000000	60.863116 
1341.000000	62.735690 
1340.000000	64.567860 
1339.000000	66.329503 
1338.000000	67.992034 
1337.000000	69.548112 
1336.000000	71.004157 
1335.000000	72.367943 
1334.000000	73.644841 
1333.000000	74.836435 
1332.000000	75.939092 
1331.000000	76.946619 
1330.000000	77.853965 
1329.000000	78.655722 
1328.000000	79.344684 
1327.000000	79.916427 
1326.000000	80.369776 
1325.000000	80.695495 
1324.000000	80.869483 
1323.000000	80.863078 
1322.000000	80.649355 
1321.000000	80.187062 
1320.000000	79.407375 
1319.000000	78.231522 
1318.000000	76.598248 
1317.000000	74.465707 
1316.000000	71.799645 
1315.000000	68.579359 
1314.000000	64.821061 
1313.000000	60.611803 
1312.000000	56.149540 
1311.000000	51.749738 
1310.000000	47.788795 
1309.000000	44.628893 
1308.000000	42.557398 
1307.000000	41.703863 
1306.000000	41.966708 
1305.000000	43.062937 
1304.000000	44.680025 
1303.000000	46.576061 
1302.000000	48.578131 
1301.000000	50.563443 
1300.000000	52.469384 
1299.000000	54.290385 
1298.000000	56.039711 
1297.000000	57.718348 
1296.000000	59.319258 
1295.000000	60.840006 
1294.000000	62.278575 
1293.000000	63.627865 
1292.000000	64.885057 
1291.000000	66.060025 
1290.000000	67.165851 
1289.000000	68.205566 
1288.000000	69.175934 
1287.000000	70.080109 
1286.000000	70.927600 
1285.000000	71.724039 
1284.000000	72.470333 
1283.000000	73.171200 
1282.000000	73.835334 
1281.000000	74.466383 
1280.000000	75.062043 
1279.000000	75.623009 
1278.000000	76.154835 
1277.000000	76.660471 
1276.000000	77.140464 
1275.000000	77.601844 
1274.000000	78.055894 
1273.000000	78.503357 
1272.000000	78.931208 
1271.000000	79.328120 
1270.000000	79.694400 
1269.000000	80.033650 
1268.000000	80.345773 
1267.000000	80.633441 
1266.000000	80.904275 
1265.000000	81.160440 
1264.000000	81.396451 
1263.000000	81.612347 
1262.000000	81.817150 
1261.000000	82.013357 
1260.000000	82.189744 
1259.000000	82.335159 
1258.000000	82.445777 
1257.000000	82.510634 
1256.000000	82.502851 
1255.000000	82.393092 
1254.000000	82.159006 
1253.000000	81.775344 
1252.000000	81.215183 
1251.000000	80.480679 
1250.000000	79.627082 
1249.000000	78.747683 
1248.000000	77.938888 
1247.000000	77.266166 
1246.000000	76.727761 
1245.000000	76.238626 
1244.000000	75.671515 
1243.000000	74.936068 
1242.000000	74.029631 
1241.000000	73.032451 
1240.000000	72.081146 
1239.000000	71.338997 
1238.000000	70.946272 
1237.000000	70.969243 
1236.000000	71.391136 
1235.000000	72.137749 
1234.000000	73.103462 
1233.000000	74.174224 
1232.000000	75.255129 
1231.000000	76.290271 
1230.000000	77.258566 
1229.000000	78.152953 
1228.000000	78.968977 
1227.000000	79.711967 
1226.000000	80.402455 
1225.000000	81.063568 
1224.000000	81.702837 
1223.000000	82.305183 
1222.000000	82.837004 
1221.000000	83.261477 
1220.000000	83.570254 
1219.000000	83.811554 
1218.000000	84.072021 
1217.000000	84.413755 
1216.000000	84.832257 
1215.000000	85.277679 
1214.000000	85.702487 
1213.000000	86.082424 
1212.000000	86.411280 
1211.000000	86.696630 
1210.000000	86.954691 
1209.000000	87.195169 
1208.000000	87.416498 
1207.000000	87.623246 
1206.000000	87.834771 
1205.000000	88.064426 
1204.000000	88.302810 
1203.000000	88.535067 
1202.000000	88.763203 
1201.000000	88.997128 
1200.000000	89.234900 
1199.000000	89.468138 
1198.000000	89.698835 
1197.000000	89.935651 
1196.000000	90.179878 
1195.000000	90.427060 
1194.000000	90.674460 
1193.000000	90.915506 
1192.000000	91.136602 
1191.000000	91.332797 
1190.000000	91.518069 
1189.000000	91.707420 
1188.000000	91.897885 
1187.000000	92.078994 
1186.000000	92.251020 
1185.000000	92.419347 
1184.000000	92.581344 
1183.000000	92.732693 
1182.000000	92.876463 
1181.000000	93.012598 
1180.000000	93.129435 
1179.000000	93.219562 
1178.000000	93.292644 
1177.000000	93.357729 
1176.000000	93.403465 
1175.000000	93.408578 
1174.000000	93.358486 
1173.000000	93.236124 
1172.000000	93.009548 
1171.000000	92.648519 
1170.000000	92.150213 
1169.000000	91.545031 
1168.000000	90.897090 
1167.000000	90.307932 
1166.000000	89.887584 
1165.000000	89.688710 
1164.000000	89.669449 
1163.000000	89.725393 
1162.000000	89.746726 
1161.000000	89.644192 
1160.000000	89.348545 
1159.000000	88.812500 
1158.000000	88.006807 
1157.000000	86.898522 
1156.000000	85.443468 
1155.000000	83.616314 
1154.000000	81.447908 
1153.000000	79.047026 
1152.000000	76.621726 
1151.000000	74.477031 
1150.000000	72.932954 
1149.000000	72.198727 
1148.000000	72.307391 
1147.000000	73.135123 
1146.000000	74.459927 
1145.000000	76.033371 
1144.000000	77.648283 
1143.000000	79.175338 
1142.000000	80.557728 
1141.000000	81.782135 
1140.000000	82.856196 
1139.000000	83.801771 
1138.000000	84.645514 
1137.000000	85.400284 
1136.000000	86.061025 
1135.000000	86.624269 
1134.000000	87.100972 
1133.000000	87.502354 
1132.000000	87.824634 
1131.000000	88.056454 
1130.000000	88.188532 
1129.000000	88.204260 
1128.000000	88.069920 
1127.000000	87.741219 
1126.000000	87.165237 
1125.000000	86.265426 
1124.000000	84.936350 
1123.000000	83.059762 
1122.000000	80.516206 
1121.000000	77.199831 
1120.000000	73.088815 
1119.000000	68.354867 
1118.000000	63.405856 
1117.000000	58.821148 
1116.000000	55.234081 
1115.000000	53.164777 
1114.000000	52.819823 
1113.000000	54.018533 
1112.000000	56.332009 
1111.000000	59.283261 
1110.000000	62.456995 
1109.000000	65.534988 
1108.000000	68.316920 
1107.000000	70.726875 
1106.000000	72.780808 
1105.000000	74.529598 
1104.000000	76.027390 
1103.000000	77.336504 
1102.000000	78.525268 
1101.000000	79.638617 
1100.000000	80.682821 
1099.000000	81.648000 
1098.000000	82.527987 
1097.000000	83.313362 
1096.000000	83.989678 
1095.000000	84.563708 
1094.000000	85.073649 
1093.000000	85.553058 
1092.000000	85.999708 
1091.000000	86.397969 
1090.000000	86.754148 
1089.000000	87.087897 
1088.000000	87.404013 
1087.000000	87.696253 
1086.000000	87.967878 
1085.000000	88.227390 
1084.000000	88.473962 
1083.000000	88.706128 
1082.000000	88.934474 
1081.000000	89.167282 
1080.000000	89.393424 
1079.000000	89.596847 
1078.000000	89.779119 
1077.000000	89.953272 
1076.000000	90.127273 
1075.000000	90.308124 
1074.000000	90.507111 
1073.000000	90.722716 
1072.000000	90.930635 
1071.000000	91.108523 
1070.000000	91.261246 
1069.000000	91.407842 
1068.000000	91.556150 
1067.000000	91.704195 
1066.000000	91.851308 
1065.000000	91.991826 
1064.000000	92.112111 
1063.000000	92.210069 
1062.000000	92.304246 
1061.000000	92.409344 
1060.000000	92.517876 
1059.000000	92.618913 
1058.000000	92.716105 
1057.000000	92.811610 
1056.000000	92.892518 
1055.000000	92.953291 
1054.000000	93.013919 
1053.000000	93.093540 
1052.000000	93.181268 
1051.000000	93.257774 
1050.000000	93.332168 
1049.000000	93.430537 
1048.000000	93.560807 
1047.000000	93.715580 
1046.000000	93.897664 
1045.000000	94.118177 
1044.000000	94.375500 
1043.000000	94.650338 
1042.000000	94.912689 
1041.000000	95.121858 
1040.000000	95.230221 
1039.000000	95.199448 
1038.000000	95.001769 
1037.000000	94.592869 
1036.000000	93.896146 
1035.000000	92.826907 
1034.000000	91.330121 
1033.000000	89.415172 
1032.000000	87.203941 
1031.000000	84.951387 
1030.000000	82.958683 
1029.000000	81.431860 
1028.000000	80.442304 
1027.000000	79.995887 
1026.000000	80.057462 
1025.000000	80.474117 
1024.000000	80.918796 
1023.000000	80.960062 
1022.000000	80.206508 
1021.000000	78.417804 
1020.000000	75.574370 
1019.000000	71.943362 
1018.000000	68.078991 
1017.000000	64.683539 
1016.000000	62.388293 
1015.000000	61.557081 
1014.000000	62.180511 
1013.000000	63.921674 
1012.000000	66.293608 
1011.000000	68.852133 
1010.000000	71.308839 
1009.000000	73.538920 
1008.000000	75.515602 
1007.000000	77.242131 
1006.000000	78.727364 
1005.000000	79.988283 
1004.000000	81.049582 
1003.000000	81.941236 
1002.000000	82.698787 
1001.000000	83.355624 
1000.000000	83.929561 
999.000000	 84.423056 
998.000000	 84.837800 
997.000000	 85.183019 
996.000000	 85.471488 
995.000000	 85.716095 
994.000000	 85.928970 
993.000000	 86.116205 
992.000000	 86.275691 
991.000000	 86.407290 
990.000000	 86.521277 
989.000000	 86.628859 
988.000000	 86.728497 
987.000000	 86.809893 
986.000000	 86.867935 
985.000000	 86.905893 
984.000000	 86.930563 
983.000000	 86.952618 
982.000000	 86.986152 
981.000000	 87.038792 
980.000000	 87.106197 
979.000000	 87.183017 
978.000000	 87.273466 
977.000000	 87.383945 
976.000000	 87.512250 
975.000000	 87.653337 
974.000000	 87.809820 
973.000000	 87.986240 
972.000000	 88.176473 
971.000000	 88.366294 
970.000000	 88.546039 
969.000000	 88.713412 
968.000000	 88.868052 
967.000000	 89.011784 
966.000000	 89.149866 
965.000000	 89.283352 
964.000000	 89.405401 
963.000000	 89.514900 
962.000000	 89.628096 
961.000000	 89.763872 
960.000000	 89.919201 
959.000000	 90.070131 
958.000000	 90.196704 
957.000000	 90.297468 
956.000000	 90.379848 
955.000000	 90.446915 
954.000000	 90.496934 
953.000000	 90.529816 
952.000000	 90.550901 
951.000000	 90.569237 
950.000000	 90.590336 
949.000000	 90.610482 
948.000000	 90.623695 
947.000000	 90.635565 
946.000000	 90.662179 
945.000000	 90.711909 
944.000000	 90.776385 
943.000000	 90.843051 
942.000000	 90.906955 
941.000000	 90.964846 
940.000000	 91.008427 
939.000000	 91.032613 
938.000000	 91.042653 
937.000000	 91.043767 
936.000000	 91.029212 
935.000000	 90.985298 
934.000000	 90.901556 
933.000000	 90.769499 
932.000000	 90.578053 
931.000000	 90.314276 
930.000000	 89.956823 
929.000000	 89.460379 
928.000000	 88.759143 
927.000000	 87.800571 
926.000000	 86.572760 
925.000000	 85.094450 
924.000000	 83.394960 
923.000000	 81.527187 
922.000000	 79.610055 
921.000000	 77.861115 
920.000000	 76.576985 
919.000000	 76.034401 
918.000000	 76.352533 
917.000000	 77.431244 
916.000000	 79.019055 
915.000000	 80.831567 
914.000000	 82.628849 
913.000000	 84.244001 
912.000000	 85.595269 
911.000000	 86.686964 
910.000000	 87.578079 
909.000000	 88.326543 
908.000000	 88.958461 
907.000000	 89.483109 
906.000000	 89.913612 
905.000000	 90.262752 
904.000000	 90.538425 
903.000000	 90.757613 
902.000000	 90.949033 
901.000000	 91.128636 
900.000000	 91.288480 
899.000000	 91.422650 
898.000000	 91.546937 
897.000000	 91.678612 
896.000000	 91.813604 
895.000000	 91.940343 
894.000000	 92.059412 
893.000000	 92.171388 
892.000000	 92.261591 
891.000000	 92.319378 
890.000000	 92.361756 
889.000000	 92.417161 
888.000000	 92.494271 
887.000000	 92.583094 
886.000000	 92.674379 
885.000000	 92.758585 
884.000000	 92.817791 
883.000000	 92.842801 
882.000000	 92.852826 
881.000000	 92.877156 
880.000000	 92.921799 
879.000000	 92.971803 
878.000000	 93.018869 
877.000000	 93.066151 
876.000000	 93.110269 
875.000000	 93.137851 
874.000000	 93.137539 
873.000000	 93.101513 
872.000000	 93.021583 
871.000000	 92.897434 
870.000000	 92.740735 
869.000000	 92.558972 
868.000000	 92.345073 
867.000000	 92.091874 
866.000000	 91.799325 
865.000000	 91.450558 
864.000000	 90.992095 
863.000000	 90.349585 
862.000000	 89.446566 
861.000000	 88.190384 
860.000000	 86.454431 
859.000000	 84.096866 
858.000000	 80.999937 
857.000000	 77.109818 
856.000000	 72.501392 
855.000000	 67.452133 
854.000000	 62.434022 
853.000000	 58.006008 
852.000000	 54.707017 
851.000000	 52.979228 
850.000000	 53.053833 
849.000000	 54.825357 
848.000000	 57.836984 
847.000000	 61.430298 
846.000000	 64.992401 
845.000000	 68.153835 
844.000000	 70.819083 
843.000000	 73.059993 
842.000000	 74.994079 
841.000000	 76.717408 
840.000000	 78.285343 
839.000000	 79.717324 
838.000000	 81.011191 
837.000000	 82.155632 
836.000000	 83.139337 
835.000000	 83.965320 
834.000000	 84.662259 
833.000000	 85.271720 
832.000000	 85.820020 
831.000000	 86.310392 
830.000000	 86.742183 
829.000000	 87.124722 
828.000000	 87.470003 
827.000000	 87.785867 
826.000000	 88.081015 
825.000000	 88.364090 
824.000000	 88.634307 
823.000000	 88.886151 
822.000000	 89.124265 
821.000000	 89.357865 
820.000000	 89.580218 
819.000000	 89.771355 
818.000000	 89.925188 
817.000000	 90.060818 
816.000000	 90.202653 
815.000000	 90.358693 
814.000000	 90.520868 
813.000000	 90.677016 
812.000000	 90.817444 
811.000000	 90.936846 
810.000000	 91.036297 
809.000000	 91.122121 
808.000000	 91.202227 
807.000000	 91.284772 
806.000000	 91.375904 
805.000000	 91.473646 
804.000000	 91.567895 
803.000000	 91.651267 
802.000000	 91.722931 
801.000000	 91.772340 
800.000000	 91.765857 
799.000000	 91.667661 
798.000000	 91.483549 
797.000000	 91.280272 
796.000000	 91.154600 
795.000000	 91.172587 
794.000000	 91.322285 
793.000000	 91.519545 
792.000000	 91.669443 
791.000000	 91.730846 
790.000000	 91.724024 
789.000000	 91.683687 
788.000000	 91.618716 
787.000000	 91.515067 
786.000000	 91.354435 
785.000000	 91.117605 
784.000000	 90.782540 
783.000000	 90.328137 
782.000000	 89.724346 
781.000000	 88.906516 
780.000000	 87.777054 
779.000000	 86.258504 
778.000000	 84.354590 
777.000000	 82.163854 
776.000000	 79.839401 
775.000000	 77.512680 
774.000000	 75.212457 
773.000000	 72.861426 
772.000000	 70.414212 
771.000000	 68.042035 
770.000000	 66.162483 
769.000000	 65.248266 
768.000000	 65.574498 
767.000000	 67.091382 
766.000000	 69.471377 
765.000000	 72.268019 
764.000000	 75.081138 
763.000000	 77.651162 
762.000000	 79.869585 
761.000000	 81.731558 
760.000000	 83.274422 
759.000000	 84.544094 
758.000000	 85.590181 
757.000000	 86.460097 
756.000000	 87.186654 
755.000000	 87.789127 
754.000000	 88.286911 
753.000000	 88.705561 
752.000000	 89.074910 
751.000000	 89.429520 
750.000000	 89.800342 
749.000000	 90.190969 
748.000000	 90.569432 
747.000000	 90.899405 
746.000000	 91.175051 
745.000000	 91.412473 
744.000000	 91.618103 
743.000000	 91.786927 
742.000000	 91.925636 
741.000000	 92.053789 
740.000000	 92.181323 
739.000000	 92.303253 
738.000000	 92.416155 
737.000000	 92.523010 
736.000000	 92.623184 
735.000000	 92.715276 
734.000000	 92.809914 
733.000000	 92.922379 
732.000000	 93.049661 
731.000000	 93.168806 
730.000000	 93.260790 
729.000000	 93.325816 
728.000000	 93.377668 
727.000000	 93.434208 
726.000000	 93.509542 
725.000000	 93.603401 
724.000000	 93.700079 
723.000000	 93.786880 
722.000000	 93.866790 
721.000000	 93.943043 
720.000000	 94.001764 
719.000000	 94.027662 
718.000000	 94.029061 
717.000000	 94.026237 
716.000000	 94.020980 
715.000000	 93.996118 
714.000000	 93.942825 
713.000000	 93.874979 
712.000000	 93.817414 
711.000000	 93.789399 
710.000000	 93.795590 
709.000000	 93.823087 
708.000000	 93.850549 
707.000000	 93.866105 
706.000000	 93.869500 
705.000000	 93.856990 
704.000000	 93.822171 
703.000000	 93.778078 
702.000000	 93.756175 
701.000000	 93.767482 
700.000000	 93.785585 
699.000000	 93.788655 
698.000000	 93.795586 
697.000000	 93.835051 
696.000000	 93.898223 
695.000000	 93.953171 
694.000000	 93.994069 
693.000000	 94.040409 
692.000000	 94.094669 
691.000000	 94.138133 
690.000000	 94.167126 
689.000000	 94.200163 
688.000000	 94.243230 
687.000000	 94.276970 
686.000000	 94.285407 
685.000000	 94.272622 
684.000000	 94.251022 
683.000000	 94.234581 
682.000000	 94.238014 
681.000000	 94.260961 
680.000000	 94.280989 
679.000000	 94.284389 
678.000000	 94.291594 
677.000000	 94.324955 
676.000000	 94.361678 
675.000000	 94.357192 
674.000000	 94.299033 
673.000000	 94.209353 
672.000000	 94.096076 
671.000000	 93.927231 
670.000000	 93.656182 
669.000000	 93.270995 
668.000000	 92.898589 
667.000000	 92.768550 
666.000000	 92.866062 
665.000000	 92.961174 
664.000000	 92.904784 
663.000000	 92.645521 
662.000000	 92.214261 
661.000000	 91.676811 
660.000000	 91.051679 
659.000000	 90.313552 
658.000000	 89.447078 
657.000000	 88.429959 
656.000000	 87.195750 
655.000000	 85.654000 
654.000000	 83.747005 
653.000000	 81.417064 
652.000000	 78.634635 
651.000000	 75.371583 
650.000000	 71.689211 

