PE IR                   SPECTRUM    ASCII       PEDS        1.60        
  -1
~SP.SP
18/03/14
13:51:42.00
18/03/14
13:51:42.00
pili

650.000000
4









SPECTRUM 100,CPU32 MAIN 00.02.8200 12-DECEMBER-2006 10:00:00
MIR TGS
MIR
OPTKBR
78890
0.200000

4.000000
STRONG
RATIO
SPECTRUM
MAGNITUDE
UNIVERSAL ATR
DOUBLE

COMBINED


0


#HDR
-1
-1
#GR
CM-1
%T
0.00002384185791015625
0.0
4000.000000
-1.000000
3351
8
99.324850
88.883989
#DATA
4000.000000	99.297193 
3999.000000	99.289929 
3998.000000	99.277900 
3997.000000	99.280793 
3996.000000	99.280000 
3995.000000	99.285789 
3994.000000	99.294545 
3993.000000	99.300831 
3992.000000	99.300308 
3991.000000	99.291416 
3990.000000	99.276038 
3989.000000	99.259818 
3988.000000	99.250431 
3987.000000	99.253155 
3986.000000	99.266741 
3985.000000	99.283454 
3984.000000	99.293901 
3983.000000	99.293179 
3982.000000	99.283867 
3981.000000	99.273790 
3980.000000	99.269995 
3979.000000	99.273936 
3978.000000	99.281778 
3977.000000	99.288582 
3976.000000	99.291809 
3975.000000	99.291224 
3974.000000	99.287202 
3973.000000	99.280335 
3972.000000	99.272200 
3971.000000	99.265276 
3970.000000	99.261510 
3969.000000	99.261341 
3968.000000	99.264062 
3967.000000	99.268548 
3966.000000	99.273849 
3965.000000	99.279532 
3964.000000	99.285424 
3963.000000	99.290959 
3962.000000	99.294960 
3961.000000	99.296221 
3960.000000	99.294277 
3959.000000	99.289750 
3958.000000	99.283980 
3957.000000	99.278876 
3956.000000	99.276697 
3955.000000	99.278789 
3954.000000	99.284360 
3953.000000	99.290434 
3952.000000	99.293659 
3951.000000	99.292649 
3950.000000	99.289108 
3949.000000	99.287333 
3948.000000	99.291009 
3947.000000	99.299370 
3946.000000	99.306461 
3945.000000	99.304974 
3944.000000	99.292373 
3943.000000	99.274139 
3942.000000	99.260261 
3941.000000	99.256281 
3940.000000	99.258573 
3939.000000	99.259030 
3938.000000	99.253361 
3937.000000	99.244662 
3936.000000	99.239430 
3935.000000	99.240787 
3934.000000	99.246617 
3933.000000	99.253100 
3932.000000	99.258682 
3931.000000	99.263165 
3930.000000	99.265381 
3929.000000	99.264843 
3928.000000	99.264218 
3927.000000	99.268049 
3926.000000	99.278171 
3925.000000	99.290322 
3924.000000	99.297203 
3923.000000	99.294958 
3922.000000	99.286087 
3921.000000	99.277574 
3920.000000	99.275689 
3919.000000	99.281332 
3918.000000	99.289155 
3917.000000	99.292324 
3916.000000	99.288769 
3915.000000	99.282187 
3914.000000	99.277719 
3913.000000	99.277930 
3912.000000	99.282087 
3911.000000	99.287899 
3910.000000	99.292480 
3909.000000	99.293673 
3908.000000	99.291663 
3907.000000	99.288764 
3906.000000	99.287751 
3905.000000	99.288815 
3904.000000	99.289728 
3903.000000	99.288916 
3902.000000	99.286324 
3901.000000	99.282376 
3900.000000	99.278085 
3899.000000	99.274863 
3898.000000	99.274025 
3897.000000	99.275494 
3896.000000	99.278256 
3895.000000	99.282466 
3894.000000	99.288916 
3893.000000	99.296444 
3892.000000	99.301839 
3891.000000	99.303851 
3890.000000	99.304929 
3889.000000	99.306332 
3888.000000	99.305537 
3887.000000	99.298768 
3886.000000	99.286805 
3885.000000	99.275651 
3884.000000	99.268463 
3883.000000	99.260896 
3882.000000	99.247629 
3881.000000	99.231934 
3880.000000	99.225768 
3879.000000	99.235530 
3878.000000	99.255284 
3877.000000	99.274547 
3876.000000	99.286321 
3875.000000	99.288403 
3874.000000	99.282519 
3873.000000	99.272640 
3872.000000	99.263033 
3871.000000	99.257095 
3870.000000	99.258199 
3869.000000	99.268585 
3868.000000	99.282781 
3867.000000	99.289002 
3866.000000	99.279870 
3865.000000	99.260642 
3864.000000	99.246536 
3863.000000	99.247904 
3862.000000	99.260042 
3861.000000	99.272159 
3860.000000	99.278334 
3859.000000	99.279035 
3858.000000	99.277258 
3857.000000	99.276544 
3856.000000	99.281017 
3855.000000	99.292452 
3854.000000	99.300634 
3853.000000	99.298381 
3852.000000	99.293386 
3851.000000	99.292293 
3850.000000	99.293740 
3849.000000	99.295774 
3848.000000	99.296293 
3847.000000	99.293121 
3846.000000	99.284841 
3845.000000	99.273691 
3844.000000	99.267265 
3843.000000	99.272952 
3842.000000	99.288954 
3841.000000	99.304456 
3840.000000	99.308496 
3839.000000	99.300731 
3838.000000	99.292998 
3837.000000	99.296244 
3836.000000	99.309227 
3835.000000	99.321805 
3834.000000	99.324850 
3833.000000	99.317433 
3832.000000	99.306298 
3831.000000	99.299233 
3830.000000	99.298511 
3829.000000	99.300187 
3828.000000	99.299834 
3827.000000	99.298425 
3826.000000	99.300673 
3825.000000	99.308496 
3824.000000	99.317400 
3823.000000	99.319313 
3822.000000	99.309012 
3821.000000	99.293341 
3820.000000	99.286601 
3819.000000	99.290880 
3818.000000	99.293550 
3817.000000	99.282873 
3816.000000	99.262878 
3815.000000	99.249362 
3814.000000	99.249766 
3813.000000	99.257708 
3812.000000	99.264452 
3811.000000	99.267805 
3810.000000	99.270675 
3809.000000	99.274936 
3808.000000	99.277922 
3807.000000	99.276748 
3806.000000	99.272109 
3805.000000	99.265176 
3804.000000	99.254843 
3803.000000	99.242328 
3802.000000	99.235506 
3801.000000	99.244258 
3800.000000	99.266664 
3799.000000	99.287237 
3798.000000	99.292625 
3797.000000	99.284272 
3796.000000	99.275767 
3795.000000	99.277463 
3794.000000	99.286169 
3793.000000	99.291709 
3792.000000	99.288597 
3791.000000	99.279758 
3790.000000	99.271795 
3789.000000	99.269384 
3788.000000	99.273761 
3787.000000	99.282774 
3786.000000	99.291002 
3785.000000	99.292034 
3784.000000	99.283147 
3783.000000	99.267619 
3782.000000	99.251936 
3781.000000	99.241353 
3780.000000	99.237422 
3779.000000	99.239471 
3778.000000	99.245472 
3777.000000	99.252009 
3776.000000	99.255667 
3775.000000	99.255239 
3774.000000	99.251916 
3773.000000	99.247861 
3772.000000	99.245385 
3771.000000	99.246504 
3770.000000	99.251781 
3769.000000	99.259098 
3768.000000	99.263975 
3767.000000	99.262785 
3766.000000	99.257378 
3765.000000	99.253960 
3764.000000	99.256633 
3763.000000	99.264174 
3762.000000	99.273030 
3761.000000	99.280571 
3760.000000	99.284355 
3759.000000	99.282560 
3758.000000	99.275563 
3757.000000	99.266800 
3756.000000	99.260446 
3755.000000	99.257148 
3754.000000	99.252970 
3753.000000	99.243620 
3752.000000	99.230872 
3751.000000	99.224198 
3750.000000	99.232874 
3749.000000	99.254830 
3748.000000	99.279369 
3747.000000	99.295087 
3746.000000	99.293803 
3745.000000	99.276534 
3744.000000	99.259912 
3743.000000	99.254122 
3742.000000	99.248268 
3741.000000	99.229043 
3740.000000	99.196876 
3739.000000	99.166029 
3738.000000	99.153449 
3737.000000	99.163000 
3736.000000	99.182370 
3735.000000	99.196577 
3734.000000	99.200582 
3733.000000	99.197942 
3732.000000	99.194996 
3731.000000	99.196195 
3730.000000	99.200824 
3729.000000	99.203577 
3728.000000	99.199337 
3727.000000	99.187279 
3726.000000	99.171795 
3725.000000	99.159397 
3724.000000	99.154989 
3723.000000	99.159986 
3722.000000	99.171358 
3721.000000	99.183031 
3720.000000	99.188934 
3719.000000	99.187888 
3718.000000	99.184697 
3717.000000	99.184490 
3716.000000	99.188211 
3715.000000	99.192775 
3714.000000	99.196301 
3713.000000	99.202298 
3712.000000	99.215524 
3711.000000	99.235518 
3710.000000	99.254297 
3709.000000	99.263733 
3708.000000	99.263655 
3707.000000	99.259843 
3706.000000	99.257215 
3705.000000	99.255391 
3704.000000	99.249780 
3703.000000	99.237414 
3702.000000	99.221402 
3701.000000	99.209354 
3700.000000	99.204998 
3699.000000	99.204146 
3698.000000	99.200865 
3697.000000	99.193745 
3696.000000	99.187045 
3695.000000	99.186643 
3694.000000	99.195983 
3693.000000	99.215114 
3692.000000	99.240403 
3691.000000	99.263834 
3690.000000	99.275005 
3689.000000	99.271960 
3688.000000	99.265260 
3687.000000	99.264211 
3686.000000	99.267845 
3685.000000	99.270216 
3684.000000	99.266676 
3683.000000	99.257296 
3682.000000	99.246529 
3681.000000	99.239587 
3680.000000	99.239327 
3679.000000	99.244060 
3678.000000	99.247940 
3677.000000	99.244021 
3676.000000	99.230781 
3675.000000	99.221150 
3674.000000	99.226659 
3673.000000	99.240989 
3672.000000	99.250420 
3671.000000	99.249543 
3670.000000	99.243726 
3669.000000	99.241444 
3668.000000	99.242659 
3667.000000	99.241241 
3666.000000	99.236539 
3665.000000	99.234226 
3664.000000	99.238628 
3663.000000	99.248194 
3662.000000	99.257067 
3661.000000	99.259349 
3660.000000	99.252092 
3659.000000	99.236071 
3658.000000	99.217759 
3657.000000	99.208525 
3656.000000	99.217040 
3655.000000	99.238715 
3654.000000	99.256845 
3653.000000	99.256150 
3652.000000	99.233362 
3651.000000	99.199658 
3650.000000	99.172295 
3649.000000	99.162737 
3648.000000	99.171209 
3647.000000	99.190035 
3646.000000	99.210134 
3645.000000	99.224822 
3644.000000	99.230802 
3643.000000	99.228954 
3642.000000	99.223477 
3641.000000	99.218335 
3640.000000	99.215097 
3639.000000	99.213328 
3638.000000	99.212408 
3637.000000	99.211371 
3636.000000	99.208392 
3635.000000	99.202733 
3634.000000	99.196485 
3633.000000	99.192534 
3632.000000	99.190561 
3631.000000	99.186791 
3630.000000	99.179227 
3629.000000	99.174532 
3628.000000	99.183767 
3627.000000	99.204894 
3626.000000	99.224127 
3625.000000	99.233254 
3624.000000	99.235936 
3623.000000	99.241448 
3622.000000	99.254683 
3621.000000	99.269993 
3620.000000	99.274227 
3619.000000	99.260325 
3618.000000	99.235724 
3617.000000	99.212771 
3616.000000	99.198311 
3615.000000	99.193366 
3614.000000	99.195268 
3613.000000	99.199435 
3612.000000	99.201203 
3611.000000	99.197501 
3610.000000	99.189672 
3609.000000	99.183820 
3608.000000	99.185280 
3607.000000	99.192605 
3606.000000	99.198578 
3605.000000	99.198117 
3604.000000	99.192725 
3603.000000	99.187528 
3602.000000	99.186310 
3601.000000	99.189309 
3600.000000	99.194330 
3599.000000	99.198481 
3598.000000	99.199122 
3597.000000	99.194196 
3596.000000	99.184885 
3595.000000	99.176168 
3594.000000	99.172989 
3593.000000	99.175379 
3592.000000	99.178245 
3591.000000	99.175623 
3590.000000	99.165734 
3589.000000	99.152825 
3588.000000	99.144855 
3587.000000	99.147728 
3586.000000	99.159902 
3585.000000	99.174207 
3584.000000	99.186436 
3583.000000	99.198434 
3582.000000	99.213996 
3581.000000	99.232035 
3580.000000	99.247082 
3579.000000	99.256462 
3578.000000	99.264001 
3577.000000	99.273982 
3576.000000	99.283429 
3575.000000	99.284634 
3574.000000	99.274488 
3573.000000	99.258783 
3572.000000	99.246022 
3571.000000	99.239222 
3570.000000	99.234940 
3569.000000	99.228450 
3568.000000	99.218791 
3567.000000	99.209641 
3566.000000	99.205094 
3565.000000	99.204849 
3564.000000	99.205708 
3563.000000	99.206130 
3562.000000	99.207774 
3561.000000	99.212962 
3560.000000	99.220996 
3559.000000	99.227819 
3558.000000	99.230625 
3557.000000	99.231893 
3556.000000	99.236518 
3555.000000	99.244611 
3554.000000	99.249117 
3553.000000	99.242973 
3552.000000	99.228341 
3551.000000	99.214942 
3550.000000	99.209608 
3549.000000	99.211218 
3548.000000	99.215307 
3547.000000	99.219610 
3546.000000	99.224001 
3545.000000	99.227603 
3544.000000	99.229561 
3543.000000	99.231599 
3542.000000	99.236494 
3541.000000	99.243918 
3540.000000	99.248797 
3539.000000	99.243815 
3538.000000	99.224492 
3537.000000	99.193963 
3536.000000	99.164623 
3535.000000	99.151776 
3534.000000	99.162791 
3533.000000	99.191140 
3532.000000	99.221587 
3531.000000	99.240609 
3530.000000	99.242741 
3529.000000	99.230088 
3528.000000	99.209641 
3527.000000	99.191186 
3526.000000	99.183415 
3525.000000	99.188602 
3524.000000	99.201219 
3523.000000	99.213809 
3522.000000	99.224296 
3521.000000	99.236089 
3520.000000	99.251342 
3519.000000	99.265597 
3518.000000	99.270422 
3517.000000	99.261144 
3516.000000	99.242035 
3515.000000	99.223228 
3514.000000	99.212296 
3513.000000	99.208553 
3512.000000	99.205736 
3511.000000	99.199878 
3510.000000	99.194089 
3509.000000	99.194632 
3508.000000	99.202675 
3507.000000	99.211175 
3506.000000	99.210959 
3505.000000	99.199658 
3504.000000	99.185313 
3503.000000	99.179733 
3502.000000	99.187416 
3501.000000	99.202171 
3500.000000	99.214507 
3499.000000	99.219973 
3498.000000	99.219612 
3497.000000	99.215531 
3496.000000	99.208859 
3495.000000	99.201583 
3494.000000	99.196884 
3493.000000	99.195703 
3492.000000	99.194673 
3491.000000	99.189352 
3490.000000	99.179567 
3489.000000	99.170547 
3488.000000	99.168152 
3487.000000	99.173442 
3486.000000	99.181998 
3485.000000	99.188202 
3484.000000	99.189772 
3483.000000	99.188463 
3482.000000	99.187368 
3481.000000	99.188355 
3480.000000	99.192307 
3479.000000	99.200196 
3478.000000	99.212224 
3477.000000	99.226066 
3476.000000	99.237215 
3475.000000	99.241723 
3474.000000	99.238353 
3473.000000	99.228515 
3472.000000	99.215462 
3471.000000	99.203300 
3470.000000	99.194677 
3469.000000	99.188774 
3468.000000	99.183030 
3467.000000	99.177766 
3466.000000	99.177754 
3465.000000	99.187513 
3464.000000	99.205504 
3463.000000	99.223533 
3462.000000	99.231881 
3461.000000	99.225779 
3460.000000	99.209236 
3459.000000	99.193881 
3458.000000	99.191640 
3457.000000	99.204749 
3456.000000	99.222683 
3455.000000	99.230464 
3454.000000	99.221480 
3453.000000	99.201570 
3452.000000	99.181437 
3451.000000	99.167198 
3450.000000	99.158445 
3449.000000	99.153419 
3448.000000	99.153556 
3447.000000	99.162278 
3446.000000	99.179810 
3445.000000	99.200685 
3444.000000	99.217265 
3443.000000	99.225176 
3442.000000	99.225182 
3441.000000	99.220717 
3440.000000	99.214945 
3439.000000	99.209653 
3438.000000	99.204579 
3437.000000	99.197041 
3436.000000	99.184796 
3435.000000	99.170456 
3434.000000	99.160986 
3433.000000	99.160330 
3432.000000	99.163844 
3431.000000	99.163256 
3430.000000	99.156856 
3429.000000	99.152044 
3428.000000	99.156596 
3427.000000	99.169223 
3426.000000	99.180625 
3425.000000	99.183327 
3424.000000	99.178880 
3423.000000	99.174805 
3422.000000	99.175579 
3421.000000	99.178494 
3420.000000	99.179140 
3419.000000	99.178416 
3418.000000	99.181228 
3417.000000	99.189018 
3416.000000	99.197248 
3415.000000	99.201484 
3414.000000	99.202896 
3413.000000	99.205009 
3412.000000	99.206821 
3411.000000	99.203001 
3410.000000	99.191226 
3409.000000	99.176429 
3408.000000	99.166758 
3407.000000	99.167259 
3406.000000	99.178394 
3405.000000	99.198068 
3404.000000	99.222052 
3403.000000	99.242871 
3402.000000	99.251731 
3401.000000	99.244323 
3400.000000	99.225029 
3399.000000	99.204540 
3398.000000	99.192434 
3397.000000	99.190949 
3396.000000	99.194777 
3395.000000	99.196134 
3394.000000	99.190515 
3393.000000	99.179380 
3392.000000	99.169382 
3391.000000	99.168898 
3390.000000	99.183001 
3389.000000	99.208962 
3388.000000	99.236091 
3387.000000	99.252095 
3386.000000	99.252266 
3385.000000	99.242886 
3384.000000	99.234358 
3383.000000	99.230439 
3382.000000	99.225101 
3381.000000	99.210281 
3380.000000	99.185394 
3379.000000	99.158393 
3378.000000	99.138397 
3377.000000	99.129295 
3376.000000	99.130377 
3375.000000	99.140236 
3374.000000	99.157274 
3373.000000	99.177135 
3372.000000	99.192869 
3371.000000	99.199819 
3370.000000	99.199983 
3369.000000	99.200308 
3368.000000	99.205955 
3367.000000	99.215070 
3366.000000	99.220059 
3365.000000	99.214483 
3364.000000	99.199424 
3363.000000	99.183066 
3362.000000	99.173609 
3361.000000	99.172736 
3360.000000	99.176371 
3359.000000	99.180421 
3358.000000	99.183716 
3357.000000	99.185659 
3356.000000	99.184172 
3355.000000	99.178093 
3354.000000	99.170039 
3353.000000	99.164620 
3352.000000	99.163981 
3351.000000	99.166425 
3350.000000	99.169057 
3349.000000	99.170529 
3348.000000	99.171388 
3347.000000	99.172797 
3346.000000	99.175086 
3345.000000	99.176954 
3344.000000	99.176539 
3343.000000	99.174037 
3342.000000	99.172703 
3341.000000	99.176157 
3340.000000	99.184771 
3339.000000	99.195313 
3338.000000	99.203467 
3337.000000	99.205807 
3336.000000	99.200574 
3335.000000	99.188839 
3334.000000	99.174967 
3333.000000	99.163857 
3332.000000	99.156865 
3331.000000	99.151698 
3330.000000	99.147072 
3329.000000	99.146028 
3328.000000	99.153140 
3327.000000	99.168636 
3326.000000	99.186486 
3325.000000	99.198528 
3324.000000	99.200158 
3323.000000	99.192401 
3322.000000	99.179604 
3321.000000	99.166017 
3320.000000	99.154371 
3319.000000	99.146394 
3318.000000	99.143225 
3317.000000	99.144870 
3316.000000	99.149917 
3315.000000	99.156328 
3314.000000	99.162391 
3313.000000	99.167133 
3312.000000	99.170751 
3311.000000	99.174775 
3310.000000	99.180390 
3309.000000	99.185643 
3308.000000	99.185561 
3307.000000	99.176791 
3306.000000	99.161930 
3305.000000	99.148150 
3304.000000	99.141540 
3303.000000	99.143195 
3302.000000	99.149761 
3301.000000	99.156256 
3300.000000	99.158936 
3299.000000	99.157422 
3298.000000	99.154641 
3297.000000	99.153675 
3296.000000	99.154544 
3295.000000	99.155183 
3294.000000	99.155358 
3293.000000	99.157797 
3292.000000	99.164755 
3291.000000	99.174414 
3290.000000	99.181421 
3289.000000	99.180710 
3288.000000	99.171436 
3287.000000	99.158749 
3286.000000	99.151429 
3285.000000	99.155325 
3284.000000	99.167626 
3283.000000	99.178796 
3282.000000	99.181183 
3281.000000	99.174832 
3280.000000	99.164728 
3279.000000	99.154911 
3278.000000	99.147448 
3277.000000	99.144965 
3276.000000	99.150015 
3275.000000	99.160921 
3274.000000	99.170920 
3273.000000	99.173690 
3272.000000	99.169249 
3271.000000	99.163312 
3270.000000	99.161338 
3269.000000	99.164252 
3268.000000	99.169478 
3267.000000	99.174169 
3266.000000	99.176015 
3265.000000	99.172046 
3264.000000	99.159566 
3263.000000	99.140288 
3262.000000	99.122241 
3261.000000	99.114750 
3260.000000	99.120497 
3259.000000	99.133525 
3258.000000	99.145289 
3257.000000	99.151074 
3256.000000	99.150493 
3255.000000	99.144993 
3254.000000	99.137785 
3253.000000	99.134405 
3252.000000	99.139437 
3251.000000	99.151598 
3250.000000	99.163889 
3249.000000	99.169434 
3248.000000	99.166102 
3247.000000	99.155865 
3246.000000	99.142386 
3245.000000	99.130537 
3244.000000	99.125936 
3243.000000	99.131922 
3242.000000	99.146502 
3241.000000	99.163311 
3240.000000	99.175722 
3239.000000	99.179964 
3238.000000	99.175440 
3237.000000	99.163864 
3236.000000	99.148828 
3235.000000	99.135438 
3234.000000	99.129211 
3233.000000	99.133769 
3232.000000	99.148113 
3231.000000	99.166001 
3230.000000	99.179668 
3229.000000	99.185695 
3228.000000	99.186799 
3227.000000	99.187082 
3226.000000	99.186690 
3225.000000	99.182670 
3224.000000	99.173915 
3223.000000	99.162751 
3222.000000	99.151677 
3221.000000	99.141464 
3220.000000	99.133416 
3219.000000	99.130785 
3218.000000	99.135633 
3217.000000	99.145880 
3216.000000	99.157691 
3215.000000	99.169431 
3214.000000	99.180589 
3213.000000	99.187722 
3212.000000	99.185575 
3211.000000	99.173836 
3210.000000	99.160200 
3209.000000	99.154478 
3208.000000	99.160490 
3207.000000	99.174743 
3206.000000	99.191022 
3205.000000	99.203860 
3204.000000	99.208681 
3203.000000	99.202328 
3202.000000	99.185554 
3201.000000	99.164304 
3200.000000	99.146871 
3199.000000	99.138565 
3198.000000	99.138361 
3197.000000	99.140683 
3196.000000	99.141192 
3195.000000	99.141092 
3194.000000	99.145094 
3193.000000	99.154994 
3192.000000	99.166484 
3191.000000	99.173330 
3190.000000	99.173593 
3189.000000	99.170278 
3188.000000	99.166512 
3187.000000	99.162657 
3186.000000	99.158808 
3185.000000	99.157958 
3184.000000	99.163981 
3183.000000	99.176063 
3182.000000	99.186899 
3181.000000	99.188284 
3180.000000	99.179037 
3179.000000	99.166533 
3178.000000	99.159459 
3177.000000	99.159657 
3176.000000	99.162241 
3175.000000	99.162671 
3174.000000	99.161076 
3173.000000	99.159218 
3172.000000	99.156154 
3171.000000	99.149342 
3170.000000	99.138993 
3169.000000	99.129217 
3168.000000	99.124817 
3167.000000	99.127947 
3166.000000	99.137010 
3165.000000	99.147325 
3164.000000	99.153640 
3163.000000	99.154093 
3162.000000	99.152141 
3161.000000	99.153505 
3160.000000	99.161115 
3159.000000	99.173395 
3158.000000	99.186299 
3157.000000	99.195620 
3156.000000	99.198445 
3155.000000	99.194634 
3154.000000	99.187018 
3153.000000	99.178780 
3152.000000	99.170953 
3151.000000	99.163617 
3150.000000	99.158257 
3149.000000	99.156343 
3148.000000	99.155983 
3147.000000	99.152883 
3146.000000	99.145377 
3145.000000	99.136520 
3144.000000	99.130541 
3143.000000	99.128916 
3142.000000	99.130275 
3141.000000	99.132150 
3140.000000	99.132424 
3139.000000	99.131189 
3138.000000	99.131601 
3137.000000	99.136199 
3136.000000	99.141502 
3135.000000	99.139675 
3134.000000	99.128275 
3133.000000	99.116047 
3132.000000	99.115682 
3131.000000	99.131230 
3130.000000	99.154539 
3129.000000	99.172862 
3128.000000	99.178113 
3127.000000	99.170909 
3126.000000	99.159138 
3125.000000	99.152386 
3124.000000	99.154493 
3123.000000	99.160296 
3122.000000	99.161338 
3121.000000	99.155227 
3120.000000	99.147720 
3119.000000	99.145338 
3118.000000	99.148211 
3117.000000	99.151627 
3116.000000	99.152892 
3115.000000	99.154198 
3114.000000	99.158681 
3113.000000	99.165487 
3112.000000	99.170193 
3111.000000	99.169963 
3110.000000	99.167087 
3109.000000	99.166370 
3108.000000	99.169294 
3107.000000	99.172225 
3106.000000	99.171022 
3105.000000	99.166303 
3104.000000	99.162638 
3103.000000	99.162934 
3102.000000	99.165163 
3101.000000	99.165060 
3100.000000	99.160963 
3099.000000	99.155216 
3098.000000	99.151735 
3097.000000	99.152987 
3096.000000	99.158410 
3095.000000	99.164473 
3094.000000	99.166740 
3093.000000	99.163304 
3092.000000	99.156795 
3091.000000	99.152498 
3090.000000	99.154138 
3089.000000	99.161404 
3088.000000	99.170763 
3087.000000	99.177563 
3086.000000	99.177763 
3085.000000	99.169884 
3084.000000	99.156576 
3083.000000	99.143332 
3082.000000	99.134418 
3081.000000	99.130472 
3080.000000	99.130777 
3079.000000	99.136263 
3078.000000	99.147908 
3077.000000	99.162409 
3076.000000	99.172372 
3075.000000	99.172503 
3074.000000	99.164835 
3073.000000	99.157108 
3072.000000	99.156481 
3071.000000	99.164669 
3070.000000	99.177325 
3069.000000	99.187123 
3068.000000	99.189115 
3067.000000	99.184912 
3066.000000	99.181156 
3065.000000	99.182764 
3064.000000	99.188111 
3063.000000	99.191551 
3062.000000	99.189317 
3061.000000	99.181652 
3060.000000	99.170845 
3059.000000	99.159883 
3058.000000	99.152794 
3057.000000	99.153180 
3056.000000	99.160663 
3055.000000	99.170060 
3054.000000	99.175665 
3053.000000	99.176236 
3052.000000	99.175465 
3051.000000	99.177998 
3050.000000	99.184977 
3049.000000	99.192558 
3048.000000	99.194381 
3047.000000	99.186500 
3046.000000	99.170946 
3045.000000	99.154754 
3044.000000	99.145104 
3043.000000	99.144865 
3042.000000	99.151664 
3041.000000	99.160073 
3040.000000	99.165033 
3039.000000	99.164780 
3038.000000	99.161616 
3037.000000	99.159567 
3036.000000	99.160836 
3035.000000	99.164625 
3034.000000	99.169015 
3033.000000	99.173043 
3032.000000	99.176921 
3031.000000	99.181450 
3030.000000	99.187657 
3029.000000	99.195769 
3028.000000	99.203617 
3027.000000	99.206916 
3026.000000	99.202229 
3025.000000	99.189828 
3024.000000	99.173773 
3023.000000	99.160182 
3022.000000	99.155346 
3021.000000	99.163079 
3020.000000	99.180977 
3019.000000	99.199304 
3018.000000	99.206330 
3017.000000	99.197550 
3016.000000	99.180297 
3015.000000	99.168120 
3014.000000	99.169490 
3013.000000	99.181089 
3012.000000	99.191561 
3011.000000	99.191518 
3010.000000	99.180258 
3009.000000	99.164160 
3008.000000	99.150481 
3007.000000	99.143116 
3006.000000	99.142214 
3005.000000	99.145388 
3004.000000	99.149182 
3003.000000	99.151205 
3002.000000	99.151640 
3001.000000	99.151850 
3000.000000	99.151235 
2999.000000	99.146882 
2998.000000	99.137367 
2997.000000	99.126195 
2996.000000	99.120432 
2995.000000	99.125709 
2994.000000	99.142229 
2993.000000	99.164326 
2992.000000	99.183212 
2991.000000	99.191674 
2990.000000	99.188406 
2989.000000	99.178682 
2988.000000	99.170024 
2987.000000	99.166573 
2986.000000	99.167380 
2985.000000	99.169444 
2984.000000	99.171175 
2983.000000	99.172479 
2982.000000	99.172485 
2981.000000	99.168900 
2980.000000	99.160643 
2979.000000	99.150681 
2978.000000	99.144662 
2977.000000	99.145764 
2976.000000	99.151534 
2975.000000	99.156648 
2974.000000	99.158331 
2973.000000	99.158120 
2972.000000	99.159080 
2971.000000	99.162757 
2970.000000	99.168432 
2969.000000	99.173426 
2968.000000	99.173924 
2967.000000	99.167625 
2966.000000	99.156543 
2965.000000	99.145758 
2964.000000	99.138532 
2963.000000	99.133989 
2962.000000	99.130210 
2961.000000	99.127848 
2960.000000	99.129205 
2959.000000	99.134967 
2958.000000	99.143170 
2957.000000	99.150675 
2956.000000	99.154903 
2955.000000	99.155353 
2954.000000	99.154326 
2953.000000	99.154698 
2952.000000	99.155950 
2951.000000	99.154079 
2950.000000	99.146889 
2949.000000	99.137681 
2948.000000	99.131708 
2947.000000	99.130402 
2946.000000	99.131115 
2945.000000	99.131246 
2944.000000	99.130120 
2943.000000	99.127816 
2942.000000	99.124797 
2941.000000	99.122126 
2940.000000	99.119611 
2939.000000	99.114349 
2938.000000	99.103820 
2937.000000	99.089828 
2936.000000	99.076479 
2935.000000	99.064996 
2934.000000	99.054159 
2933.000000	99.045425 
2932.000000	99.042909 
2931.000000	99.047253 
2930.000000	99.054071 
2929.000000	99.060508 
2928.000000	99.069090 
2927.000000	99.081748 
2926.000000	99.093738 
2925.000000	99.097951 
2924.000000	99.093488 
2923.000000	99.085923 
2922.000000	99.080296 
2921.000000	99.077715 
2920.000000	99.078142 
2919.000000	99.081990 
2918.000000	99.087724 
2917.000000	99.091033 
2916.000000	99.088525 
2915.000000	99.081506 
2914.000000	99.075358 
2913.000000	99.075590 
2912.000000	99.083795 
2911.000000	99.095964 
2910.000000	99.105059 
2909.000000	99.106795 
2908.000000	99.103104 
2907.000000	99.098754 
2906.000000	99.095591 
2905.000000	99.092387 
2904.000000	99.089935 
2903.000000	99.091876 
2902.000000	99.099403 
2901.000000	99.106894 
2900.000000	99.107339 
2899.000000	99.100545 
2898.000000	99.092380 
2897.000000	99.086836 
2896.000000	99.082527 
2895.000000	99.078552 
2894.000000	99.079669 
2893.000000	99.091428 
2892.000000	99.111258 
2891.000000	99.128661 
2890.000000	99.135358 
2889.000000	99.132447 
2888.000000	99.126476 
2887.000000	99.121942 
2886.000000	99.120351 
2885.000000	99.123126 
2884.000000	99.130124 
2883.000000	99.135941 
2882.000000	99.133266 
2881.000000	99.122089 
2880.000000	99.111735 
2879.000000	99.111238 
2878.000000	99.120391 
2877.000000	99.132344 
2876.000000	99.141810 
2875.000000	99.147245 
2874.000000	99.147692 
2873.000000	99.142735 
2872.000000	99.135441 
2871.000000	99.131001 
2870.000000	99.131286 
2869.000000	99.133375 
2868.000000	99.133966 
2867.000000	99.132504 
2866.000000	99.129499 
2865.000000	99.124848 
2864.000000	99.119094 
2863.000000	99.113703 
2862.000000	99.108761 
2861.000000	99.102818 
2860.000000	99.096348 
2859.000000	99.092665 
2858.000000	99.093562 
2857.000000	99.096531 
2856.000000	99.098411 
2855.000000	99.099435 
2854.000000	99.101007 
2853.000000	99.101625 
2852.000000	99.098816 
2851.000000	99.094551 
2850.000000	99.094898 
2849.000000	99.103093 
2848.000000	99.115125 
2847.000000	99.123511 
2846.000000	99.124287 
2845.000000	99.119447 
2844.000000	99.113811 
2843.000000	99.110891 
2842.000000	99.111556 
2841.000000	99.115389 
2840.000000	99.122083 
2839.000000	99.130934 
2838.000000	99.139560 
2837.000000	99.144628 
2836.000000	99.144703 
2835.000000	99.141787 
2834.000000	99.139365 
2833.000000	99.139273 
2832.000000	99.140694 
2831.000000	99.141480 
2830.000000	99.140051 
2829.000000	99.137115 
2828.000000	99.136183 
2827.000000	99.141041 
2826.000000	99.151385 
2825.000000	99.161799 
2824.000000	99.166633 
2823.000000	99.165536 
2822.000000	99.162994 
2821.000000	99.163000 
2820.000000	99.165533 
2819.000000	99.167847 
2818.000000	99.167442 
2817.000000	99.163551 
2816.000000	99.157051 
2815.000000	99.149438 
2814.000000	99.141371 
2813.000000	99.132506 
2812.000000	99.123484 
2811.000000	99.117370 
2810.000000	99.117544 
2809.000000	99.124143 
2808.000000	99.133721 
2807.000000	99.142306 
2806.000000	99.147658 
2805.000000	99.149067 
2804.000000	99.146938 
2803.000000	99.143010 
2802.000000	99.139371 
2801.000000	99.136485 
2800.000000	99.133201 
2799.000000	99.129136 
2798.000000	99.125994 
2797.000000	99.126082 
2796.000000	99.130325 
2795.000000	99.137763 
2794.000000	99.145550 
2793.000000	99.149241 
2792.000000	99.145061 
2791.000000	99.133439 
2790.000000	99.119654 
2789.000000	99.109847 
2788.000000	99.106533 
2787.000000	99.108050 
2786.000000	99.111235 
2785.000000	99.113836 
2784.000000	99.115347 
2783.000000	99.116877 
2782.000000	99.120156 
2781.000000	99.125895 
2780.000000	99.132926 
2779.000000	99.139068 
2778.000000	99.142688 
2777.000000	99.143671 
2776.000000	99.143560 
2775.000000	99.144615 
2774.000000	99.147779 
2773.000000	99.151436 
2772.000000	99.153086 
2771.000000	99.152364 
2770.000000	99.151329 
2769.000000	99.151682 
2768.000000	99.153117 
2767.000000	99.154764 
2766.000000	99.156497 
2765.000000	99.157849 
2764.000000	99.157293 
2763.000000	99.154120 
2762.000000	99.149813 
2761.000000	99.145847 
2760.000000	99.141234 
2759.000000	99.134731 
2758.000000	99.129328 
2757.000000	99.131769 
2756.000000	99.145842 
2755.000000	99.166855 
2754.000000	99.184021 
2753.000000	99.188517 
2752.000000	99.179338 
2751.000000	99.162387 
2750.000000	99.145203 
2749.000000	99.132756 
2748.000000	99.126737 
2747.000000	99.126658 
2746.000000	99.130519 
2745.000000	99.135298 
2744.000000	99.138512 
2743.000000	99.139700 
2742.000000	99.139673 
2741.000000	99.138339 
2740.000000	99.134393 
2739.000000	99.127472 
2738.000000	99.119603 
2737.000000	99.113959 
2736.000000	99.112842 
2735.000000	99.117049 
2734.000000	99.125802 
2733.000000	99.136292 
2732.000000	99.144250 
2731.000000	99.146392 
2730.000000	99.142411 
2729.000000	99.134398 
2728.000000	99.125182 
2727.000000	99.117935 
2726.000000	99.116120 
2725.000000	99.121644 
2724.000000	99.132403 
2723.000000	99.142775 
2722.000000	99.147591 
2721.000000	99.145852 
2720.000000	99.140554 
2719.000000	99.135262 
2718.000000	99.131671 
2717.000000	99.130765 
2716.000000	99.134806 
2715.000000	99.145311 
2714.000000	99.158187 
2713.000000	99.164084 
2712.000000	99.157390 
2711.000000	99.144142 
2710.000000	99.137033 
2709.000000	99.141661 
2708.000000	99.151133 
2707.000000	99.155555 
2706.000000	99.153286 
2705.000000	99.150106 
2704.000000	99.150281 
2703.000000	99.152775 
2702.000000	99.155160 
2701.000000	99.156993 
2700.000000	99.158412 
2699.000000	99.158013 
2698.000000	99.153442 
2697.000000	99.143185 
2696.000000	99.128017 
2695.000000	99.111999 
2694.000000	99.101509 
2693.000000	99.101089 
2692.000000	99.109603 
2691.000000	99.121385 
2690.000000	99.130917 
2689.000000	99.135803 
2688.000000	99.136661 
2687.000000	99.136303 
2686.000000	99.138107 
2685.000000	99.142516 
2684.000000	99.145354 
2683.000000	99.142178 
2682.000000	99.134240 
2681.000000	99.127382 
2680.000000	99.124858 
2679.000000	99.124231 
2678.000000	99.122074 
2677.000000	99.118563 
2676.000000	99.115915 
2675.000000	99.115118 
2674.000000	99.116284 
2673.000000	99.119885 
2672.000000	99.125174 
2671.000000	99.129051 
2670.000000	99.128955 
2669.000000	99.125821 
2668.000000	99.122153 
2667.000000	99.118633 
2666.000000	99.115266 
2665.000000	99.114681 
2664.000000	99.120681 
2663.000000	99.132921 
2662.000000	99.145606 
2661.000000	99.152550 
2660.000000	99.151745 
2659.000000	99.144299 
2658.000000	99.131296 
2657.000000	99.114101 
2656.000000	99.096957 
2655.000000	99.086567 
2654.000000	99.087430 
2653.000000	99.097493 
2652.000000	99.108850 
2651.000000	99.113246 
2650.000000	99.107750 
2649.000000	99.096061 
2648.000000	99.085185 
2647.000000	99.080869 
2646.000000	99.084883 
2645.000000	99.094684 
2644.000000	99.104929 
2643.000000	99.110637 
2642.000000	99.110509 
2641.000000	99.107285 
2640.000000	99.104241 
2639.000000	99.101704 
2638.000000	99.097809 
2637.000000	99.092261 
2636.000000	99.087936 
2635.000000	99.088199 
2634.000000	99.093326 
2633.000000	99.100167 
2632.000000	99.105185 
2631.000000	99.107454 
2630.000000	99.108579 
2629.000000	99.109835 
2628.000000	99.109833 
2627.000000	99.105634 
2626.000000	99.096229 
2625.000000	99.084380 
2624.000000	99.074900 
2623.000000	99.071694 
2622.000000	99.076345 
2621.000000	99.087837 
2620.000000	99.102091 
2619.000000	99.112502 
2618.000000	99.113232 
2617.000000	99.103428 
2616.000000	99.088198 
2615.000000	99.075128 
2614.000000	99.069571 
2613.000000	99.072392 
2612.000000	99.081016 
2611.000000	99.092164 
2610.000000	99.103994 
2609.000000	99.116016 
2608.000000	99.127122 
2607.000000	99.134268 
2606.000000	99.133974 
2605.000000	99.125599 
2604.000000	99.112796 
2603.000000	99.100996 
2602.000000	99.092936 
2601.000000	99.086641 
2600.000000	99.078219 
2599.000000	99.066943 
2598.000000	99.057240 
2597.000000	99.055225 
2596.000000	99.063438 
2595.000000	99.079014 
2594.000000	99.096060 
2593.000000	99.108917 
2592.000000	99.114277 
2591.000000	99.112485 
2590.000000	99.107389 
2589.000000	99.103344 
2588.000000	99.101416 
2587.000000	99.099227 
2586.000000	99.094524 
2585.000000	99.087438 
2584.000000	99.079052 
2583.000000	99.070185 
2582.000000	99.063168 
2581.000000	99.062796 
2580.000000	99.072512 
2579.000000	99.089356 
2578.000000	99.104409 
2577.000000	99.109207 
2576.000000	99.102129 
2575.000000	99.089383 
2574.000000	99.080004 
2573.000000	99.078438 
2572.000000	99.080945 
2571.000000	99.080383 
2570.000000	99.075453 
2569.000000	99.073414 
2568.000000	99.081571 
2567.000000	99.097218 
2566.000000	99.108477 
2565.000000	99.105192 
2564.000000	99.087805 
2563.000000	99.066490 
2562.000000	99.053367 
2561.000000	99.054138 
2560.000000	99.063975 
2559.000000	99.071352 
2558.000000	99.068453 
2557.000000	99.058471 
2556.000000	99.051153 
2555.000000	99.051868 
2554.000000	99.057669 
2553.000000	99.063352 
2552.000000	99.067250 
2551.000000	99.070215 
2550.000000	99.073135 
2549.000000	99.077666 
2548.000000	99.085810 
2547.000000	99.095640 
2546.000000	99.100270 
2545.000000	99.094905 
2544.000000	99.083291 
2543.000000	99.073471 
2542.000000	99.068375 
2541.000000	99.064729 
2540.000000	99.060777 
2539.000000	99.060243 
2538.000000	99.066698 
2537.000000	99.077246 
2536.000000	99.084757 
2535.000000	99.085521 
2534.000000	99.082969 
2533.000000	99.083992 
2532.000000	99.092139 
2531.000000	99.103865 
2530.000000	99.111281 
2529.000000	99.109494 
2528.000000	99.101443 
2527.000000	99.094438 
2526.000000	99.091908 
2525.000000	99.090225 
2524.000000	99.084369 
2523.000000	99.075059 
2522.000000	99.068618 
2521.000000	99.070315 
2520.000000	99.079248 
2519.000000	99.089983 
2518.000000	99.098335 
2517.000000	99.104800 
2516.000000	99.112016 
2515.000000	99.119262 
2514.000000	99.120964 
2513.000000	99.111987 
2512.000000	99.093776 
2511.000000	99.073598 
2510.000000	99.058060 
2509.000000	99.049621 
2508.000000	99.049244 
2507.000000	99.058322 
2506.000000	99.074793 
2505.000000	99.089664 
2504.000000	99.092609 
2503.000000	99.082753 
2502.000000	99.071081 
2501.000000	99.069674 
2500.000000	99.079354 
2499.000000	99.089786 
2498.000000	99.091555 
2497.000000	99.086069 
2496.000000	99.082820 
2495.000000	99.088497 
2494.000000	99.100567 
2493.000000	99.111033 
2492.000000	99.114175 
2491.000000	99.109812 
2490.000000	99.101349 
2489.000000	99.093417 
2488.000000	99.090720 
2487.000000	99.095711 
2486.000000	99.105597 
2485.000000	99.113417 
2484.000000	99.114081 
2483.000000	99.108585 
2482.000000	99.101008 
2481.000000	99.092947 
2480.000000	99.083719 
2479.000000	99.075434 
2478.000000	99.073684 
2477.000000	99.080630 
2476.000000	99.089766 
2475.000000	99.091489 
2474.000000	99.083973 
2473.000000	99.075244 
2472.000000	99.073073 
2471.000000	99.076031 
2470.000000	99.077765 
2469.000000	99.077891 
2468.000000	99.082957 
2467.000000	99.095218 
2466.000000	99.105625 
2465.000000	99.102605 
2464.000000	99.085788 
2463.000000	99.066449 
2462.000000	99.055029 
2461.000000	99.052554 
2460.000000	99.054102 
2459.000000	99.054960 
2458.000000	99.051262 
2457.000000	99.040402 
2456.000000	99.026494 
2455.000000	99.022666 
2454.000000	99.040917 
2453.000000	99.077963 
2452.000000	99.114880 
2451.000000	99.132915 
2450.000000	99.127945 
2449.000000	99.109217 
2448.000000	99.087656 
2447.000000	99.068167 
2446.000000	99.051269 
2445.000000	99.037723 
2444.000000	99.029358 
2443.000000	99.026618 
2442.000000	99.027869 
2441.000000	99.032576 
2440.000000	99.043855 
2439.000000	99.064757 
2438.000000	99.090922 
2437.000000	99.110059 
2436.000000	99.112296 
2435.000000	99.100304 
2434.000000	99.085957 
2433.000000	99.077404 
2432.000000	99.072881 
2431.000000	99.067592 
2430.000000	99.062150 
2429.000000	99.061113 
2428.000000	99.065509 
2427.000000	99.070277 
2426.000000	99.069038 
2425.000000	99.059966 
2424.000000	99.047664 
2423.000000	99.039978 
2422.000000	99.041038 
2421.000000	99.045633 
2420.000000	99.042697 
2419.000000	99.027458 
2418.000000	99.008888 
2417.000000	99.001353 
2416.000000	99.009155 
2415.000000	99.023429 
2414.000000	99.035011 
2413.000000	99.045451 
2412.000000	99.061914 
2411.000000	99.084758 
2410.000000	99.105471 
2409.000000	99.116819 
2408.000000	99.120764 
2407.000000	99.124505 
2406.000000	99.131140 
2405.000000	99.136223 
2404.000000	99.132558 
2403.000000	99.117291 
2402.000000	99.095199 
2401.000000	99.075977 
2400.000000	99.067282 
2399.000000	99.069262 
2398.000000	99.075862 
2397.000000	99.081126 
2396.000000	99.083025 
2395.000000	99.081732 
2394.000000	99.077346 
2393.000000	99.071184 
2392.000000	99.066878 
2391.000000	99.067275 
2390.000000	99.071161 
2389.000000	99.075138 
2388.000000	99.077134 
2387.000000	99.075043 
2386.000000	99.063669 
2385.000000	99.038722 
2384.000000	99.006171 
2383.000000	98.983812 
2382.000000	98.989210 
2381.000000	99.025428 
2380.000000	99.078632 
2379.000000	99.127567 
2378.000000	99.154330 
2377.000000	99.150891 
2376.000000	99.122825 
2375.000000	99.087449 
2374.000000	99.063124 
2373.000000	99.056579 
2372.000000	99.060969 
2371.000000	99.065291 
2370.000000	99.062988 
2369.000000	99.053936 
2368.000000	99.044744 
2367.000000	99.046094 
2366.000000	99.060825 
2365.000000	99.073520 
2364.000000	99.064805 
2363.000000	99.039387 
2362.000000	99.024430 
2361.000000	99.037492 
2360.000000	99.064851 
2359.000000	99.078924 
2358.000000	99.071469 
2357.000000	99.055706 
2356.000000	99.046696 
2355.000000	99.049396 
2354.000000	99.058550 
2353.000000	99.062463 
2352.000000	99.051133 
2351.000000	99.030392 
2350.000000	99.018366 
2349.000000	99.025832 
2348.000000	99.043272 
2347.000000	99.043683 
2346.000000	99.014207 
2345.000000	98.978087 
2344.000000	98.966178 
2343.000000	98.979861 
2342.000000	99.004341 
2341.000000	99.035719 
2340.000000	99.072893 
2339.000000	99.106928 
2338.000000	99.124543 
2337.000000	99.118484 
2336.000000	99.089930 
2335.000000	99.048113 
2334.000000	99.006067 
2333.000000	98.975724 
2332.000000	98.961803 
2331.000000	98.964580 
2330.000000	98.978801 
2329.000000	98.991951 
2328.000000	98.992644 
2327.000000	98.979158 
2326.000000	98.962578 
2325.000000	98.952001 
2324.000000	98.946818 
2323.000000	98.942989 
2322.000000	98.943489 
2321.000000	98.956483 
2320.000000	98.979175 
2319.000000	98.997905 
2318.000000	99.001637 
2317.000000	98.994038 
2316.000000	98.985547 
2315.000000	98.981413 
2314.000000	98.977953 
2313.000000	98.969778 
2312.000000	98.956422 
2311.000000	98.943229 
2310.000000	98.937457 
2309.000000	98.942382 
2308.000000	98.953467 
2307.000000	98.960125 
2306.000000	98.954458 
2305.000000	98.938801 
2304.000000	98.923522 
2303.000000	98.916639 
2302.000000	98.916297 
2301.000000	98.913964 
2300.000000	98.903542 
2299.000000	98.886805 
2298.000000	98.872007 
2297.000000	98.868456 
2296.000000	98.881002 
2295.000000	98.906135 
2294.000000	98.933947 
2293.000000	98.954738 
2292.000000	98.964773 
2291.000000	98.964662 
2290.000000	98.955209 
2289.000000	98.938225 
2288.000000	98.920583 
2287.000000	98.912003 
2286.000000	98.916564 
2285.000000	98.929158 
2284.000000	98.941865 
2283.000000	98.950876 
2282.000000	98.955636 
2281.000000	98.955528 
2280.000000	98.950859 
2279.000000	98.944578 
2278.000000	98.939676 
2277.000000	98.937652 
2276.000000	98.941722 
2275.000000	98.956369 
2274.000000	98.977805 
2273.000000	98.989497 
2272.000000	98.976820 
2271.000000	98.945239 
2270.000000	98.915235 
2269.000000	98.898906 
2268.000000	98.890912 
2267.000000	98.884542 
2266.000000	98.885323 
2265.000000	98.901307 
2264.000000	98.927760 
2263.000000	98.950764 
2262.000000	98.962618 
2261.000000	98.966179 
2260.000000	98.966623 
2259.000000	98.965515 
2258.000000	98.961358 
2257.000000	98.950445 
2256.000000	98.929180 
2255.000000	98.902051 
2254.000000	98.885044 
2253.000000	98.892318 
2252.000000	98.918494 
2251.000000	98.942260 
2250.000000	98.950183 
2249.000000	98.949169 
2248.000000	98.952176 
2247.000000	98.959620 
2246.000000	98.963365 
2245.000000	98.964040 
2244.000000	98.971475 
2243.000000	98.986366 
2242.000000	98.993071 
2241.000000	98.978272 
2240.000000	98.949465 
2239.000000	98.924841 
2238.000000	98.908856 
2237.000000	98.890684 
2236.000000	98.868114 
2235.000000	98.858984 
2234.000000	98.879223 
2233.000000	98.917560 
2232.000000	98.944380 
2231.000000	98.943052 
2230.000000	98.920994 
2229.000000	98.891123 
2228.000000	98.856702 
2227.000000	98.820270 
2226.000000	98.795701 
2225.000000	98.798467 
2224.000000	98.825999 
2223.000000	98.857435 
2222.000000	98.874684 
2221.000000	98.878927 
2220.000000	98.885456 
2219.000000	98.906393 
2218.000000	98.940538 
2217.000000	98.977563 
2216.000000	99.008700 
2215.000000	99.031461 
2214.000000	99.044951 
2213.000000	99.045133 
2212.000000	99.028670 
2211.000000	99.000558 
2210.000000	98.974529 
2209.000000	98.964145 
2208.000000	98.972347 
2207.000000	98.987002 
2206.000000	98.985753 
2205.000000	98.952030 
2204.000000	98.894932 
2203.000000	98.851286 
2202.000000	98.857819 
2201.000000	98.915759 
2200.000000	98.987034 
2199.000000	99.029629 
2198.000000	99.033040 
2197.000000	99.016755 
2196.000000	99.000248 
2195.000000	98.982487 
2194.000000	98.952264 
2193.000000	98.912691 
2192.000000	98.887403 
2191.000000	98.897742 
2190.000000	98.936536 
2189.000000	98.972503 
2188.000000	98.983962 
2187.000000	98.979889 
2186.000000	98.981156 
2185.000000	98.992079 
2184.000000	99.004495 
2183.000000	99.020912 
2182.000000	99.049474 
2181.000000	99.073904 
2180.000000	99.055647 
2179.000000	98.981660 
2178.000000	98.894559 
2177.000000	98.858075 
2176.000000	98.895112 
2175.000000	98.970784 
2174.000000	99.033549 
2173.000000	99.060727 
2172.000000	99.064400 
2171.000000	99.064520 
2170.000000	99.063563 
2169.000000	99.048014 
2168.000000	99.012852 
2167.000000	98.976431 
2166.000000	98.959010 
2165.000000	98.948236 
2164.000000	98.907328 
2163.000000	98.830255 
2162.000000	98.771189 
2161.000000	98.796192 
2160.000000	98.906197 
2159.000000	99.029151 
2158.000000	99.094265 
2157.000000	99.089290 
2156.000000	99.042451 
2155.000000	98.984049 
2154.000000	98.936286 
2153.000000	98.911552 
2152.000000	98.903543 
2151.000000	98.892086 
2150.000000	98.868304 
2149.000000	98.849182 
2148.000000	98.859128 
2147.000000	98.901574 
2146.000000	98.955915 
2145.000000	98.998198 
2144.000000	99.016921 
2143.000000	99.010820 
2142.000000	98.983332 
2141.000000	98.946288 
2140.000000	98.921552 
2139.000000	98.927337 
2138.000000	98.960471 
2137.000000	98.997876 
2136.000000	99.019197 
2135.000000	99.024510 
2134.000000	99.027182 
2133.000000	99.035196 
2132.000000	99.045068 
2131.000000	99.049707 
2130.000000	99.045182 
2129.000000	99.031901 
2128.000000	99.015653 
2127.000000	99.006373 
2126.000000	99.009037 
2125.000000	99.014774 
2124.000000	99.007538 
2123.000000	98.982649 
2122.000000	98.954164 
2121.000000	98.940912 
2120.000000	98.948035 
2119.000000	98.963911 
2118.000000	98.971700 
2117.000000	98.962462 
2116.000000	98.941841 
2115.000000	98.927291 
2114.000000	98.935727 
2113.000000	98.970029 
2112.000000	99.017805 
2111.000000	99.062686 
2110.000000	99.092745 
2109.000000	99.099748 
2108.000000	99.080424 
2107.000000	99.043526 
2106.000000	99.008269 
2105.000000	98.987834 
2104.000000	98.977363 
2103.000000	98.964540 
2102.000000	98.948338 
2101.000000	98.938904 
2100.000000	98.940292 
2099.000000	98.942689 
2098.000000	98.935524 
2097.000000	98.923295 
2096.000000	98.923191 
2095.000000	98.946611 
2094.000000	98.984364 
2093.000000	99.011633 
2092.000000	99.009609 
2091.000000	98.982362 
2090.000000	98.950964 
2089.000000	98.931720 
2088.000000	98.923754 
2087.000000	98.918623 
2086.000000	98.915205 
2085.000000	98.919655 
2084.000000	98.934965 
2083.000000	98.956588 
2082.000000	98.976333 
2081.000000	98.985928 
2080.000000	98.980148 
2079.000000	98.962790 
2078.000000	98.948351 
2077.000000	98.951128 
2076.000000	98.970966 
2075.000000	98.993479 
2074.000000	99.003354 
2073.000000	98.993993 
2072.000000	98.967165 
2071.000000	98.930518 
2070.000000	98.897666 
2069.000000	98.884747 
2068.000000	98.900642 
2067.000000	98.939222 
2066.000000	98.980511 
2065.000000	99.000303 
2064.000000	98.985060 
2063.000000	98.943270 
2062.000000	98.902019 
2061.000000	98.888559 
2060.000000	98.911092 
2059.000000	98.954568 
2058.000000	98.992293 
2057.000000	99.002147 
2056.000000	98.978185 
2055.000000	98.932449 
2054.000000	98.885273 
2053.000000	98.852243 
2052.000000	98.840599 
2051.000000	98.854211 
2050.000000	98.892386 
2049.000000	98.941015 
2048.000000	98.977585 
2047.000000	98.994119 
2046.000000	99.004066 
2045.000000	99.016485 
2044.000000	99.015375 
2043.000000	98.980284 
2042.000000	98.922456 
2041.000000	98.882698 
2040.000000	98.888579 
2039.000000	98.926460 
2038.000000	98.959866 
2037.000000	98.963903 
2036.000000	98.938085 
2035.000000	98.895312 
2034.000000	98.848775 
2033.000000	98.810475 
2032.000000	98.794271 
2031.000000	98.810447 
2030.000000	98.851209 
2029.000000	98.888253 
2028.000000	98.901465 
2027.000000	98.911018 
2026.000000	98.959819 
2025.000000	99.054157 
2024.000000	99.141183 
2023.000000	99.162723 
2022.000000	99.117574 
2021.000000	99.052128 
2020.000000	99.002299 
2019.000000	98.970452 
2018.000000	98.954214 
2017.000000	98.963904 
2016.000000	98.999828 
2015.000000	99.036646 
2014.000000	99.045015 
2013.000000	99.016254 
2012.000000	98.959488 
2011.000000	98.889037 
2010.000000	98.825732 
2009.000000	98.797718 
2008.000000	98.819656 
2007.000000	98.872197 
2006.000000	98.914770 
2005.000000	98.921874 
2004.000000	98.903815 
2003.000000	98.892803 
2002.000000	98.913099 
2001.000000	98.960935 
2000.000000	99.009167 
1999.000000	99.031437 
1998.000000	99.020188 
1997.000000	98.984830 
1996.000000	98.940310 
1995.000000	98.900616 
1994.000000	98.877524 
1993.000000	98.875900 
1992.000000	98.888448 
1991.000000	98.903377 
1990.000000	98.918708 
1989.000000	98.941944 
1988.000000	98.975773 
1987.000000	99.009829 
1986.000000	99.027344 
1985.000000	99.017927 
1984.000000	98.987103 
1983.000000	98.957134 
1982.000000	98.953251 
1981.000000	98.978944 
1980.000000	99.007088 
1979.000000	99.005961 
1978.000000	98.974386 
1977.000000	98.939723 
1976.000000	98.918723 
1975.000000	98.899540 
1974.000000	98.868947 
1973.000000	98.837835 
1972.000000	98.828246 
1971.000000	98.846209 
1970.000000	98.878579 
1969.000000	98.909754 
1968.000000	98.931904 
1967.000000	98.943940 
1966.000000	98.950434 
1965.000000	98.959696 
1964.000000	98.974812 
1963.000000	98.987293 
1962.000000	98.986049 
1961.000000	98.973883 
1960.000000	98.968332 
1959.000000	98.982078 
1958.000000	99.007984 
1957.000000	99.027633 
1956.000000	99.030909 
1955.000000	99.022696 
1954.000000	99.011400 
1953.000000	98.996617 
1952.000000	98.970978 
1951.000000	98.933651 
1950.000000	98.899452 
1949.000000	98.889187 
1948.000000	98.909567 
1947.000000	98.944952 
1946.000000	98.969741 
1945.000000	98.968629 
1944.000000	98.945679 
1943.000000	98.917644 
1942.000000	98.901729 
1941.000000	98.908042 
1940.000000	98.939034 
1939.000000	98.987834 
1938.000000	99.032606 
1937.000000	99.042898 
1936.000000	99.005301 
1935.000000	98.941697 
1934.000000	98.893395 
1933.000000	98.885800 
1932.000000	98.910602 
1931.000000	98.942479 
1930.000000	98.965129 
1929.000000	98.974519 
1928.000000	98.970815 
1927.000000	98.957597 
1926.000000	98.944029 
1925.000000	98.937859 
1924.000000	98.935736 
1923.000000	98.930861 
1922.000000	98.927210 
1921.000000	98.933797 
1920.000000	98.948520 
1919.000000	98.958998 
1918.000000	98.959652 
1917.000000	98.957636 
1916.000000	98.957278 
1915.000000	98.952919 
1914.000000	98.940716 
1913.000000	98.925845 
1912.000000	98.912862 
1911.000000	98.897032 
1910.000000	98.874409 
1909.000000	98.854272 
1908.000000	98.853221 
1907.000000	98.876771 
1906.000000	98.913363 
1905.000000	98.945300 
1904.000000	98.961236 
1903.000000	98.963183 
1902.000000	98.962761 
1901.000000	98.968932 
1900.000000	98.980231 
1899.000000	98.987289 
1898.000000	98.981882 
1897.000000	98.964316 
1896.000000	98.942222 
1895.000000	98.925189 
1894.000000	98.919461 
1893.000000	98.924726 
1892.000000	98.936661 
1891.000000	98.951630 
1890.000000	98.966490 
1889.000000	98.976454 
1888.000000	98.978667 
1887.000000	98.978048 
1886.000000	98.982824 
1885.000000	98.992483 
1884.000000	98.995951 
1883.000000	98.986382 
1882.000000	98.971659 
1881.000000	98.963247 
1880.000000	98.962172 
1879.000000	98.961957 
1878.000000	98.959947 
1877.000000	98.958856 
1876.000000	98.958056 
1875.000000	98.952191 
1874.000000	98.940653 
1873.000000	98.929318 
1872.000000	98.921370 
1871.000000	98.914350 
1870.000000	98.908730 
1869.000000	98.912025 
1868.000000	98.927587 
1867.000000	98.947570 
1866.000000	98.962188 
1865.000000	98.967394 
1864.000000	98.963590 
1863.000000	98.953511 
1862.000000	98.942510 
1861.000000	98.936890 
1860.000000	98.938918 
1859.000000	98.946479 
1858.000000	98.957777 
1857.000000	98.970985 
1856.000000	98.980095 
1855.000000	98.977237 
1854.000000	98.961774 
1853.000000	98.942300 
1852.000000	98.929688 
1851.000000	98.928602 
1850.000000	98.934303 
1849.000000	98.939096 
1848.000000	98.938806 
1847.000000	98.934281 
1846.000000	98.928136 
1845.000000	98.921974 
1844.000000	98.915535 
1843.000000	98.907232 
1842.000000	98.895222 
1841.000000	98.880369 
1840.000000	98.869787 
1839.000000	98.871179 
1838.000000	98.884789 
1837.000000	98.903973 
1836.000000	98.922837 
1835.000000	98.940259 
1834.000000	98.954125 
1833.000000	98.958901 
1832.000000	98.954160 
1831.000000	98.947190 
1830.000000	98.943424 
1829.000000	98.941214 
1828.000000	98.936479 
1827.000000	98.930293 
1826.000000	98.929892 
1825.000000	98.940949 
1824.000000	98.958696 
1823.000000	98.970747 
1822.000000	98.970783 
1821.000000	98.963656 
1820.000000	98.958099 
1819.000000	98.955924 
1818.000000	98.952310 
1817.000000	98.945112 
1816.000000	98.937371 
1815.000000	98.934989 
1814.000000	98.941787 
1813.000000	98.956541 
1812.000000	98.972659 
1811.000000	98.981054 
1810.000000	98.980202 
1809.000000	98.975416 
1808.000000	98.968256 
1807.000000	98.958289 
1806.000000	98.950315 
1805.000000	98.949639 
1804.000000	98.952016 
1803.000000	98.948311 
1802.000000	98.936448 
1801.000000	98.923725 
1800.000000	98.915966 
1799.000000	98.911609 
1798.000000	98.911534 
1797.000000	98.919307 
1796.000000	98.931589 
1795.000000	98.939751 
1794.000000	98.938500 
1793.000000	98.930720 
1792.000000	98.922937 
1791.000000	98.918890 
1790.000000	98.920689 
1789.000000	98.928029 
1788.000000	98.936346 
1787.000000	98.939060 
1786.000000	98.933026 
1785.000000	98.920909 
1784.000000	98.907663 
1783.000000	98.900201 
1782.000000	98.903744 
1781.000000	98.916947 
1780.000000	98.932854 
1779.000000	98.943190 
1778.000000	98.946292 
1777.000000	98.945283 
1776.000000	98.944378 
1775.000000	98.947472 
1774.000000	98.953033 
1773.000000	98.952796 
1772.000000	98.942945 
1771.000000	98.930933 
1770.000000	98.923853 
1769.000000	98.922282 
1768.000000	98.923009 
1767.000000	98.922532 
1766.000000	98.920848 
1765.000000	98.921997 
1764.000000	98.929743 
1763.000000	98.941765 
1762.000000	98.950179 
1761.000000	98.952794 
1760.000000	98.953663 
1759.000000	98.952195 
1758.000000	98.943753 
1757.000000	98.925320 
1756.000000	98.904339 
1755.000000	98.890073 
1754.000000	98.882652 
1753.000000	98.879092 
1752.000000	98.880065 
1751.000000	98.883659 
1750.000000	98.881204 
1749.000000	98.870258 
1748.000000	98.861400 
1747.000000	98.864945 
1746.000000	98.874467 
1745.000000	98.877672 
1744.000000	98.874440 
1743.000000	98.871990 
1742.000000	98.872012 
1741.000000	98.871246 
1740.000000	98.868571 
1739.000000	98.866611 
1738.000000	98.865133 
1737.000000	98.860776 
1736.000000	98.851526 
1735.000000	98.837219 
1734.000000	98.819445 
1733.000000	98.805588 
1732.000000	98.800645 
1731.000000	98.803470 
1730.000000	98.812943 
1729.000000	98.822836 
1728.000000	98.828373 
1727.000000	98.830038 
1726.000000	98.829412 
1725.000000	98.827091 
1724.000000	98.824883 
1723.000000	98.823371 
1722.000000	98.822349 
1721.000000	98.821249 
1720.000000	98.821639 
1719.000000	98.825128 
1718.000000	98.830427 
1717.000000	98.837906 
1716.000000	98.844470 
1715.000000	98.846098 
1714.000000	98.849128 
1713.000000	98.857551 
1712.000000	98.864499 
1711.000000	98.865267 
1710.000000	98.864009 
1709.000000	98.864005 
1708.000000	98.863512 
1707.000000	98.862265 
1706.000000	98.866922 
1705.000000	98.883142 
1704.000000	98.897390 
1703.000000	98.892105 
1702.000000	98.863268 
1701.000000	98.828432 
1700.000000	98.814021 
1699.000000	98.818706 
1698.000000	98.827681 
1697.000000	98.837409 
1696.000000	98.844356 
1695.000000	98.848810 
1694.000000	98.857021 
1693.000000	98.866558 
1692.000000	98.870762 
1691.000000	98.864896 
1690.000000	98.854093 
1689.000000	98.846508 
1688.000000	98.844295 
1687.000000	98.846259 
1686.000000	98.855157 
1685.000000	98.872807 
1684.000000	98.882582 
1683.000000	98.883115 
1682.000000	98.886902 
1681.000000	98.890274 
1680.000000	98.889928 
1679.000000	98.883340 
1678.000000	98.871782 
1677.000000	98.857511 
1676.000000	98.845057 
1675.000000	98.839813 
1674.000000	98.840328 
1673.000000	98.839547 
1672.000000	98.835799 
1671.000000	98.832131 
1670.000000	98.831709 
1669.000000	98.834457 
1668.000000	98.840820 
1667.000000	98.849908 
1666.000000	98.856789 
1665.000000	98.859026 
1664.000000	98.856564 
1663.000000	98.852137 
1662.000000	98.851940 
1661.000000	98.856498 
1660.000000	98.862264 
1659.000000	98.866147 
1658.000000	98.865955 
1657.000000	98.857820 
1656.000000	98.845617 
1655.000000	98.840387 
1654.000000	98.847504 
1653.000000	98.854311 
1652.000000	98.863773 
1651.000000	98.873309 
1650.000000	98.869087 
1649.000000	98.861514 
1648.000000	98.853044 
1647.000000	98.841310 
1646.000000	98.826822 
1645.000000	98.820900 
1644.000000	98.821089 
1643.000000	98.822254 
1642.000000	98.823612 
1641.000000	98.823660 
1640.000000	98.818869 
1639.000000	98.807902 
1638.000000	98.796498 
1637.000000	98.792170 
1636.000000	98.792356 
1635.000000	98.793931 
1634.000000	98.798986 
1633.000000	98.806675 
1632.000000	98.815320 
1631.000000	98.823678 
1630.000000	98.829727 
1629.000000	98.831523 
1628.000000	98.830262 
1627.000000	98.830341 
1626.000000	98.831759 
1625.000000	98.829044 
1624.000000	98.820334 
1623.000000	98.813404 
1622.000000	98.816706 
1621.000000	98.824115 
1620.000000	98.826903 
1619.000000	98.826543 
1618.000000	98.829583 
1617.000000	98.835208 
1616.000000	98.838194 
1615.000000	98.839887 
1614.000000	98.837636 
1613.000000	98.825234 
1612.000000	98.803950 
1611.000000	98.786911 
1610.000000	98.785611 
1609.000000	98.794132 
1608.000000	98.799241 
1607.000000	98.799166 
1606.000000	98.798828 
1605.000000	98.796803 
1604.000000	98.791454 
1603.000000	98.788017 
1602.000000	98.792310 
1601.000000	98.801899 
1600.000000	98.809283 
1599.000000	98.810362 
1598.000000	98.804898 
1597.000000	98.794138 
1596.000000	98.780704 
1595.000000	98.769218 
1594.000000	98.763661 
1593.000000	98.763633 
1592.000000	98.766614 
1591.000000	98.771666 
1590.000000	98.777719 
1589.000000	98.781465 
1588.000000	98.781933 
1587.000000	98.783046 
1586.000000	98.788058 
1585.000000	98.793209 
1584.000000	98.794834 
1583.000000	98.796759 
1582.000000	98.801221 
1581.000000	98.803044 
1580.000000	98.799441 
1579.000000	98.797058 
1578.000000	98.801720 
1577.000000	98.807213 
1576.000000	98.804152 
1575.000000	98.801837 
1574.000000	98.807669 
1573.000000	98.812705 
1572.000000	98.813154 
1571.000000	98.814355 
1570.000000	98.821885 
1569.000000	98.829619 
1568.000000	98.832856 
1567.000000	98.834066 
1566.000000	98.834936 
1565.000000	98.832337 
1564.000000	98.828125 
1563.000000	98.827804 
1562.000000	98.837157 
1561.000000	98.854275 
1560.000000	98.877958 
1559.000000	98.878363 
1558.000000	98.856972 
1557.000000	98.851966 
1556.000000	98.851230 
1555.000000	98.848142 
1554.000000	98.834179 
1553.000000	98.813541 
1552.000000	98.795630 
1551.000000	98.788069 
1550.000000	98.788089 
1549.000000	98.789901 
1548.000000	98.791600 
1547.000000	98.797742 
1546.000000	98.811678 
1545.000000	98.829004 
1544.000000	98.841366 
1543.000000	98.845525 
1542.000000	98.846011 
1541.000000	98.841683 
1540.000000	98.814678 
1539.000000	98.783039 
1538.000000	98.780522 
1537.000000	98.797881 
1536.000000	98.818329 
1535.000000	98.832707 
1534.000000	98.833985 
1533.000000	98.823210 
1532.000000	98.813099 
1531.000000	98.808562 
1530.000000	98.808347 
1529.000000	98.812707 
1528.000000	98.820238 
1527.000000	98.829142 
1526.000000	98.839452 
1525.000000	98.852741 
1524.000000	98.869299 
1523.000000	98.886127 
1522.000000	98.894842 
1521.000000	98.888807 
1520.000000	98.873463 
1519.000000	98.855993 
1518.000000	98.840088 
1517.000000	98.832271 
1516.000000	98.836860 
1515.000000	98.848435 
1514.000000	98.854517 
1513.000000	98.850270 
1512.000000	98.840661 
1511.000000	98.830484 
1510.000000	98.823480 
1509.000000	98.824938 
1508.000000	98.839929 
1507.000000	98.845510 
1506.000000	98.833992 
1505.000000	98.831669 
1504.000000	98.834603 
1503.000000	98.832128 
1502.000000	98.823318 
1501.000000	98.814798 
1500.000000	98.817211 
1499.000000	98.837052 
1498.000000	98.866847 
1497.000000	98.892209 
1496.000000	98.901009 
1495.000000	98.890734 
1494.000000	98.871620 
1493.000000	98.857146 
1492.000000	98.853663 
1491.000000	98.856650 
1490.000000	98.857353 
1489.000000	98.856480 
1488.000000	98.856943 
1487.000000	98.854294 
1486.000000	98.850071 
1485.000000	98.846367 
1484.000000	98.841683 
1483.000000	98.836781 
1482.000000	98.834537 
1481.000000	98.837760 
1480.000000	98.842200 
1479.000000	98.840242 
1478.000000	98.830556 
1477.000000	98.821704 
1476.000000	98.820397 
1475.000000	98.823806 
1474.000000	98.825502 
1473.000000	98.820269 
1472.000000	98.809716 
1471.000000	98.799249 
1470.000000	98.791196 
1469.000000	98.787232 
1468.000000	98.788786 
1467.000000	98.793192 
1466.000000	98.796200 
1465.000000	98.794957 
1464.000000	98.792949 
1463.000000	98.793284 
1462.000000	98.793999 
1461.000000	98.794680 
1460.000000	98.797917 
1459.000000	98.804714 
1458.000000	98.803094 
1457.000000	98.783063 
1456.000000	98.765035 
1455.000000	98.765075 
1454.000000	98.773113 
1453.000000	98.783231 
1452.000000	98.791694 
1451.000000	98.794351 
1450.000000	98.790399 
1449.000000	98.787796 
1448.000000	98.791993 
1447.000000	98.797879 
1446.000000	98.798160 
1445.000000	98.793571 
1444.000000	98.792145 
1443.000000	98.795148 
1442.000000	98.796015 
1441.000000	98.791139 
1440.000000	98.785539 
1439.000000	98.782994 
1438.000000	98.777857 
1437.000000	98.764562 
1436.000000	98.751399 
1435.000000	98.748647 
1434.000000	98.752493 
1433.000000	98.757549 
1432.000000	98.762852 
1431.000000	98.769004 
1430.000000	98.774995 
1429.000000	98.781468 
1428.000000	98.788950 
1427.000000	98.794457 
1426.000000	98.794187 
1425.000000	98.787207 
1424.000000	98.781227 
1423.000000	98.781968 
1422.000000	98.785156 
1421.000000	98.786572 
1420.000000	98.791166 
1419.000000	98.800942 
1418.000000	98.805638 
1417.000000	98.800555 
1416.000000	98.791436 
1415.000000	98.783442 
1414.000000	98.776382 
1413.000000	98.771324 
1412.000000	98.774124 
1411.000000	98.786645 
1410.000000	98.799551 
1409.000000	98.803797 
1408.000000	98.798745 
1407.000000	98.788733 
1406.000000	98.779089 
1405.000000	98.775632 
1404.000000	98.785149 
1403.000000	98.803968 
1402.000000	98.817659 
1401.000000	98.817029 
1400.000000	98.805824 
1399.000000	98.794734 
1398.000000	98.790010 
1397.000000	98.792699 
1396.000000	98.803158 
1395.000000	98.818807 
1394.000000	98.829400 
1393.000000	98.827189 
1392.000000	98.817993 
1391.000000	98.811825 
1390.000000	98.812499 
1389.000000	98.818018 
1388.000000	98.825668 
1387.000000	98.834528 
1386.000000	98.843791 
1385.000000	98.850262 
1384.000000	98.850700 
1383.000000	98.843927 
1382.000000	98.832077 
1381.000000	98.821393 
1380.000000	98.817592 
1379.000000	98.821220 
1378.000000	98.826768 
1377.000000	98.828039 
1376.000000	98.824414 
1375.000000	98.821082 
1374.000000	98.821626 
1373.000000	98.823546 
1372.000000	98.822687 
1371.000000	98.820073 
1370.000000	98.821165 
1369.000000	98.827121 
1368.000000	98.833297 
1367.000000	98.833413 
1366.000000	98.825448 
1365.000000	98.813940 
1364.000000	98.805484 
1363.000000	98.802027 
1362.000000	98.800628 
1361.000000	98.799716 
1360.000000	98.802133 
1359.000000	98.811228 
1358.000000	98.825343 
1357.000000	98.838149 
1356.000000	98.845240 
1355.000000	98.847731 
1354.000000	98.848510 
1353.000000	98.848042 
1352.000000	98.843186 
1351.000000	98.831946 
1350.000000	98.817956 
1349.000000	98.806824 
1348.000000	98.802928 
1347.000000	98.806568 
1346.000000	98.814469 
1345.000000	98.822870 
1344.000000	98.830278 
1343.000000	98.835659 
1342.000000	98.835979 
1341.000000	98.828919 
1340.000000	98.818982 
1339.000000	98.815608 
1338.000000	98.821259 
1337.000000	98.827965 
1336.000000	98.828606 
1335.000000	98.824573 
1334.000000	98.820672 
1333.000000	98.818008 
1332.000000	98.815067 
1331.000000	98.812683 
1330.000000	98.813176 
1329.000000	98.816240 
1328.000000	98.819336 
1327.000000	98.820803 
1326.000000	98.819267 
1325.000000	98.812873 
1324.000000	98.805119 
1323.000000	98.805649 
1322.000000	98.819266 
1321.000000	98.837043 
1320.000000	98.844936 
1319.000000	98.840227 
1318.000000	98.833500 
1317.000000	98.833761 
1316.000000	98.838203 
1315.000000	98.838791 
1314.000000	98.833115 
1313.000000	98.825968 
1312.000000	98.822838 
1311.000000	98.824986 
1310.000000	98.829938 
1309.000000	98.834503 
1308.000000	98.836688 
1307.000000	98.836367 
1306.000000	98.834700 
1305.000000	98.832694 
1304.000000	98.831891 
1303.000000	98.834327 
1302.000000	98.840356 
1301.000000	98.846619 
1300.000000	98.848521 
1299.000000	98.845210 
1298.000000	98.840946 
1297.000000	98.840510 
1296.000000	98.844171 
1295.000000	98.848567 
1294.000000	98.851398 
1293.000000	98.853595 
1292.000000	98.856503 
1291.000000	98.858568 
1290.000000	98.856475 
1289.000000	98.849165 
1288.000000	98.839330 
1287.000000	98.830778 
1286.000000	98.825207 
1285.000000	98.821848 
1284.000000	98.819128 
1283.000000	98.815967 
1282.000000	98.812828 
1281.000000	98.812011 
1280.000000	98.815697 
1279.000000	98.822964 
1278.000000	98.829689 
1277.000000	98.832715 
1276.000000	98.832901 
1275.000000	98.833130 
1274.000000	98.834362 
1273.000000	98.835473 
1272.000000	98.836058 
1271.000000	98.836981 
1270.000000	98.838007 
1269.000000	98.837054 
1268.000000	98.832825 
1267.000000	98.826842 
1266.000000	98.822207 
1265.000000	98.821351 
1264.000000	98.824302 
1263.000000	98.827736 
1262.000000	98.826951 
1261.000000	98.821268 
1260.000000	98.817211 
1259.000000	98.823156 
1258.000000	98.839321 
1257.000000	98.855839 
1256.000000	98.861898 
1255.000000	98.855383 
1254.000000	98.843105 
1253.000000	98.833652 
1252.000000	98.831605 
1251.000000	98.836999 
1250.000000	98.846730 
1249.000000	98.855348 
1248.000000	98.856800 
1247.000000	98.848533 
1246.000000	98.835237 
1245.000000	98.827386 
1244.000000	98.833193 
1243.000000	98.850505 
1242.000000	98.867609 
1241.000000	98.873206 
1240.000000	98.865154 
1239.000000	98.850131 
1238.000000	98.837012 
1237.000000	98.830727 
1236.000000	98.829795 
1235.000000	98.828290 
1234.000000	98.822213 
1233.000000	98.814887 
1232.000000	98.813281 
1231.000000	98.817824 
1230.000000	98.820019 
1229.000000	98.813141 
1228.000000	98.801096 
1227.000000	98.792432 
1226.000000	98.789360 
1225.000000	98.788325 
1224.000000	98.788633 
1223.000000	98.792982 
1222.000000	98.799738 
1221.000000	98.802245 
1220.000000	98.798160 
1219.000000	98.793788 
1218.000000	98.795766 
1217.000000	98.802548 
1216.000000	98.807545 
1215.000000	98.807822 
1214.000000	98.806376 
1213.000000	98.807494 
1212.000000	98.812542 
1211.000000	98.819359 
1210.000000	98.824182 
1209.000000	98.824691 
1208.000000	98.821838 
1207.000000	98.818146 
1206.000000	98.814797 
1205.000000	98.812050 
1204.000000	98.811686 
1203.000000	98.815761 
1202.000000	98.822185 
1201.000000	98.824868 
1200.000000	98.820290 
1199.000000	98.811752 
1198.000000	98.805072 
1197.000000	98.802011 
1196.000000	98.800118 
1195.000000	98.797468 
1194.000000	98.794672 
1193.000000	98.792606 
1192.000000	98.791202 
1191.000000	98.791494 
1190.000000	98.796572 
1189.000000	98.808103 
1188.000000	98.822198 
1187.000000	98.830981 
1186.000000	98.829970 
1185.000000	98.823078 
1184.000000	98.818537 
1183.000000	98.820159 
1182.000000	98.824288 
1181.000000	98.825194 
1180.000000	98.821210 
1179.000000	98.814723 
1178.000000	98.808055 
1177.000000	98.801257 
1176.000000	98.793557 
1175.000000	98.785934 
1174.000000	98.782073 
1173.000000	98.786104 
1172.000000	98.798385 
1171.000000	98.814008 
1170.000000	98.827272 
1169.000000	98.837070 
1168.000000	98.845386 
1167.000000	98.851513 
1166.000000	98.852254 
1165.000000	98.848480 
1164.000000	98.846501 
1163.000000	98.850431 
1162.000000	98.857027 
1161.000000	98.860445 
1160.000000	98.858114 
1159.000000	98.849468 
1158.000000	98.834049 
1157.000000	98.815579 
1156.000000	98.803670 
1155.000000	98.805076 
1154.000000	98.814963 
1153.000000	98.822264 
1152.000000	98.822307 
1151.000000	98.819366 
1150.000000	98.818759 
1149.000000	98.822167 
1148.000000	98.829601 
1147.000000	98.839548 
1146.000000	98.846518 
1145.000000	98.843984 
1144.000000	98.831569 
1143.000000	98.816255 
1142.000000	98.805850 
1141.000000	98.803701 
1140.000000	98.808478 
1139.000000	98.814833 
1138.000000	98.815322 
1137.000000	98.806844 
1136.000000	98.795143 
1135.000000	98.788378 
1134.000000	98.786722 
1133.000000	98.783725 
1132.000000	98.777274 
1131.000000	98.771818 
1130.000000	98.768162 
1129.000000	98.758534 
1128.000000	98.736263 
1127.000000	98.705537 
1126.000000	98.677295 
1125.000000	98.658831 
1124.000000	98.651079 
1123.000000	98.652422 
1122.000000	98.660127 
1121.000000	98.669398 
1120.000000	98.674981 
1119.000000	98.674366 
1118.000000	98.668892 
1117.000000	98.663050 
1116.000000	98.662685 
1115.000000	98.670427 
1114.000000	98.680467 
1113.000000	98.680207 
1112.000000	98.660410 
1111.000000	98.624466 
1110.000000	98.586697 
1109.000000	98.560943 
1108.000000	98.550040 
1107.000000	98.544781 
1106.000000	98.534385 
1105.000000	98.519108 
1104.000000	98.509948 
1103.000000	98.513772 
1102.000000	98.521466 
1101.000000	98.516642 
1100.000000	98.494196 
1099.000000	98.464187 
1098.000000	98.440073 
1097.000000	98.426698 
1096.000000	98.421258 
1095.000000	98.418927 
1094.000000	98.415485 
1093.000000	98.409296 
1092.000000	98.403569 
1091.000000	98.403491 
1090.000000	98.409737 
1089.000000	98.417897 
1088.000000	98.424209 
1087.000000	98.426854 
1086.000000	98.421260 
1085.000000	98.401065 
1084.000000	98.367924 
1083.000000	98.336065 
1082.000000	98.321545 
1081.000000	98.327036 
1080.000000	98.339141 
1079.000000	98.339464 
1078.000000	98.318017 
1077.000000	98.279517 
1076.000000	98.240052 
1075.000000	98.217033 
1074.000000	98.219303 
1073.000000	98.244006 
1072.000000	98.279426 
1071.000000	98.309566 
1070.000000	98.321234 
1069.000000	98.313015 
1068.000000	98.296451 
1067.000000	98.284028 
1066.000000	98.276979 
1065.000000	98.269305 
1064.000000	98.261090 
1063.000000	98.258889 
1062.000000	98.261055 
1061.000000	98.251793 
1060.000000	98.217330 
1059.000000	98.165274 
1058.000000	98.121255 
1057.000000	98.104964 
1056.000000	98.112618 
1055.000000	98.123520 
1054.000000	98.121540 
1053.000000	98.108235 
1052.000000	98.094728 
1051.000000	98.084831 
1050.000000	98.072228 
1049.000000	98.052768 
1048.000000	98.029544 
1047.000000	98.003264 
1046.000000	97.968356 
1045.000000	97.924754 
1044.000000	97.884864 
1043.000000	97.860379 
1042.000000	97.847497 
1041.000000	97.834120 
1040.000000	97.817346 
1039.000000	97.803074 
1038.000000	97.790950 
1037.000000	97.772251 
1036.000000	97.743756 
1035.000000	97.712225 
1034.000000	97.681804 
1033.000000	97.646575 
1032.000000	97.599857 
1031.000000	97.543295 
1030.000000	97.483282 
1029.000000	97.425963 
1028.000000	97.378938 
1027.000000	97.348520 
1026.000000	97.328957 
1025.000000	97.302152 
1024.000000	97.256234 
1023.000000	97.200459 
1022.000000	97.155162 
1021.000000	97.129558 
1020.000000	97.114596 
1019.000000	97.094967 
1018.000000	97.062940 
1017.000000	97.021724 
1016.000000	96.980132 
1015.000000	96.945036 
1014.000000	96.916670 
1013.000000	96.889743 
1012.000000	96.858160 
1011.000000	96.818434 
1010.000000	96.770926 
1009.000000	96.719519 
1008.000000	96.666947 
1007.000000	96.607368 
1006.000000	96.528058 
1005.000000	96.425382 
1004.000000	96.317683 
1003.000000	96.235659 
1002.000000	96.198760 
1001.000000	96.203584 
1000.000000	96.230529 
999.000000	 96.254085 
998.000000	 96.252226 
997.000000	 96.218834 
996.000000	 96.168229 
995.000000	 96.119325 
994.000000	 96.075740 
993.000000	 96.029647 
992.000000	 95.982177 
991.000000	 95.946024 
990.000000	 95.925987 
989.000000	 95.910699 
988.000000	 95.888307 
987.000000	 95.858208 
986.000000	 95.821925 
985.000000	 95.774848 
984.000000	 95.715493 
983.000000	 95.653115 
982.000000	 95.596571 
981.000000	 95.542759 
980.000000	 95.484550 
979.000000	 95.423455 
978.000000	 95.365909 
977.000000	 95.312632 
976.000000	 95.259847 
975.000000	 95.205621 
974.000000	 95.146679 
973.000000	 95.074362 
972.000000	 94.984261 
971.000000	 94.887964 
970.000000	 94.805681 
969.000000	 94.746110 
968.000000	 94.699342 
967.000000	 94.649201 
966.000000	 94.588068 
965.000000	 94.521041 
964.000000	 94.460604 
963.000000	 94.417168 
962.000000	 94.390862 
961.000000	 94.371871 
960.000000	 94.349985 
959.000000	 94.323206 
958.000000	 94.297712 
957.000000	 94.282526 
956.000000	 94.284458 
955.000000	 94.304193 
954.000000	 94.336109 
953.000000	 94.374905 
952.000000	 94.421539 
951.000000	 94.478056 
950.000000	 94.538101 
949.000000	 94.589842 
948.000000	 94.628986 
947.000000	 94.661607 
946.000000	 94.691696 
945.000000	 94.711709 
944.000000	 94.707444 
943.000000	 94.667380 
942.000000	 94.587521 
941.000000	 94.475473 
940.000000	 94.352735 
939.000000	 94.244847 
938.000000	 94.163049 
937.000000	 94.099432 
936.000000	 94.041786 
935.000000	 93.985369 
934.000000	 93.927949 
933.000000	 93.865742 
932.000000	 93.803876 
931.000000	 93.762625 
930.000000	 93.760044 
929.000000	 93.788642 
928.000000	 93.817294 
927.000000	 93.817616 
926.000000	 93.785885 
925.000000	 93.740367 
924.000000	 93.700714 
923.000000	 93.670823 
922.000000	 93.641047 
921.000000	 93.606468 
920.000000	 93.578418 
919.000000	 93.571859 
918.000000	 93.583667 
917.000000	 93.592102 
916.000000	 93.578794 
915.000000	 93.544145 
914.000000	 93.500810 
913.000000	 93.460803 
912.000000	 93.431137 
911.000000	 93.412559 
910.000000	 93.397975 
909.000000	 93.379807 
908.000000	 93.362208 
907.000000	 93.357378 
906.000000	 93.366328 
905.000000	 93.373133 
904.000000	 93.363669 
903.000000	 93.341377 
902.000000	 93.318682 
901.000000	 93.301173 
900.000000	 93.286700 
899.000000	 93.272133 
898.000000	 93.254116 
897.000000	 93.229795 
896.000000	 93.203596 
895.000000	 93.186247 
894.000000	 93.180365 
893.000000	 93.173469 
892.000000	 93.151963 
891.000000	 93.115811 
890.000000	 93.073560 
889.000000	 93.030872 
888.000000	 92.991665 
887.000000	 92.962709 
886.000000	 92.947080 
885.000000	 92.938282 
884.000000	 92.929519 
883.000000	 92.922878 
882.000000	 92.919773 
881.000000	 92.908163 
880.000000	 92.871553 
879.000000	 92.808648 
878.000000	 92.733550 
877.000000	 92.658123 
876.000000	 92.584858 
875.000000	 92.516227 
874.000000	 92.459508 
873.000000	 92.418953 
872.000000	 92.389056 
871.000000	 92.356936 
870.000000	 92.308895 
869.000000	 92.237677 
868.000000	 92.147633 
867.000000	 92.050106 
866.000000	 91.949932 
865.000000	 91.840737 
864.000000	 91.718824 
863.000000	 91.596104 
862.000000	 91.490324 
861.000000	 91.404832 
860.000000	 91.326463 
859.000000	 91.243047 
858.000000	 91.156146 
857.000000	 91.075234 
856.000000	 91.004390 
855.000000	 90.937762 
854.000000	 90.867149 
853.000000	 90.792828 
852.000000	 90.724658 
851.000000	 90.669959 
850.000000	 90.622654 
849.000000	 90.570132 
848.000000	 90.510029 
847.000000	 90.453472 
846.000000	 90.412653 
845.000000	 90.394189 
844.000000	 90.404693 
843.000000	 90.449404 
842.000000	 90.518195 
841.000000	 90.582701 
840.000000	 90.616705 
839.000000	 90.616127 
838.000000	 90.594851 
837.000000	 90.566258 
836.000000	 90.534135 
835.000000	 90.495383 
834.000000	 90.442308 
833.000000	 90.363490 
832.000000	 90.250623 
831.000000	 90.109084 
830.000000	 89.961596 
829.000000	 89.839222 
828.000000	 89.762586 
827.000000	 89.723101 
826.000000	 89.683230 
825.000000	 89.607721 
824.000000	 89.499493 
823.000000	 89.396051 
822.000000	 89.328210 
821.000000	 89.292429 
820.000000	 89.264127 
819.000000	 89.224103 
818.000000	 89.169259 
817.000000	 89.110457 
816.000000	 89.065562 
815.000000	 89.046043 
814.000000	 89.045306 
813.000000	 89.046286 
812.000000	 89.042132 
811.000000	 89.040607 
810.000000	 89.045304 
809.000000	 89.043237 
808.000000	 89.018986 
807.000000	 88.975862 
806.000000	 88.936818 
805.000000	 88.925466 
804.000000	 88.946003 
803.000000	 88.976422 
802.000000	 88.982604 
801.000000	 88.949524 
800.000000	 88.901614 
799.000000	 88.883989 
798.000000	 88.918472 
797.000000	 88.983063 
796.000000	 89.036824 
795.000000	 89.057247 
794.000000	 89.050536 
793.000000	 89.035264 
792.000000	 89.025580 
791.000000	 89.027974 
790.000000	 89.045926 
789.000000	 89.082829 
788.000000	 89.138643 
787.000000	 89.204254 
786.000000	 89.264555 
785.000000	 89.311515 
784.000000	 89.349931 
783.000000	 89.384709 
782.000000	 89.407873 
781.000000	 89.408193 
780.000000	 89.391875 
779.000000	 89.383299 
778.000000	 89.402321 
777.000000	 89.446470 
776.000000	 89.496450 
775.000000	 89.534067 
774.000000	 89.555737 
773.000000	 89.574271 
772.000000	 89.606705 
771.000000	 89.655390 
770.000000	 89.702547 
769.000000	 89.728185 
768.000000	 89.730690 
767.000000	 89.726344 
766.000000	 89.734487 
765.000000	 89.767903 
764.000000	 89.829214 
763.000000	 89.907214 
762.000000	 89.983542 
761.000000	 90.052473 
760.000000	 90.125379 
759.000000	 90.205427 
758.000000	 90.271393 
757.000000	 90.304734 
756.000000	 90.322044 
755.000000	 90.357226 
754.000000	 90.415560 
753.000000	 90.469373 
752.000000	 90.499391 
751.000000	 90.515822 
750.000000	 90.534889 
749.000000	 90.559210 
748.000000	 90.591141 
747.000000	 90.643969 
746.000000	 90.724205 
745.000000	 90.815482 
744.000000	 90.893437 
743.000000	 90.949386 
742.000000	 90.991684 
741.000000	 91.031586 
740.000000	 91.073812 
739.000000	 91.113472 
738.000000	 91.139001 
737.000000	 91.148156 
736.000000	 91.162720 
735.000000	 91.212164 
734.000000	 91.296466 
733.000000	 91.378999 
732.000000	 91.424683 
731.000000	 91.434094 
730.000000	 91.433894 
729.000000	 91.447620 
728.000000	 91.484866 
727.000000	 91.542059 
726.000000	 91.598932 
725.000000	 91.627692 
724.000000	 91.621306 
723.000000	 91.604810 
722.000000	 91.608917 
721.000000	 91.642401 
720.000000	 91.697705 
719.000000	 91.769362 
718.000000	 91.851959 
717.000000	 91.930664 
716.000000	 91.991467 
715.000000	 92.037001 
714.000000	 92.079130 
713.000000	 92.120254 
712.000000	 92.156842 
711.000000	 92.195649 
710.000000	 92.247575 
709.000000	 92.305867 
708.000000	 92.348574 
707.000000	 92.366113 
706.000000	 92.371521 
705.000000	 92.382179 
704.000000	 92.404848 
703.000000	 92.439622 
702.000000	 92.484406 
701.000000	 92.530590 
700.000000	 92.566408 
699.000000	 92.591685 
698.000000	 92.616872 
697.000000	 92.642351 
696.000000	 92.651382 
695.000000	 92.632778 
694.000000	 92.604339 
693.000000	 92.600453 
692.000000	 92.637707 
691.000000	 92.702686 
690.000000	 92.771593 
689.000000	 92.835076 
688.000000	 92.899551 
687.000000	 92.966761 
686.000000	 93.022105 
685.000000	 93.047977 
684.000000	 93.044961 
683.000000	 93.032805 
682.000000	 93.028444 
681.000000	 93.031101 
680.000000	 93.032985 
679.000000	 93.035529 
678.000000	 93.040631 
677.000000	 93.030035 
676.000000	 92.977633 
675.000000	 92.884878 
674.000000	 92.788048 
673.000000	 92.731268 
672.000000	 92.741286 
671.000000	 92.836392 
670.000000	 93.040237 
669.000000	 93.360968 
668.000000	 93.647007 
667.000000	 93.644904 
666.000000	 93.451025 
665.000000	 93.275329 
664.000000	 93.174540 
663.000000	 93.134158 
662.000000	 93.137135 
661.000000	 93.178584 
660.000000	 93.236968 
659.000000	 93.287705 
658.000000	 93.284953 
657.000000	 93.296240 
656.000000	 93.297171 
655.000000	 93.189826 
654.000000	 93.345741 
653.000000	 93.397522 
652.000000	 93.379533 
651.000000	 93.304742 
650.000000	 93.232504 

