PE IR                   SPECTRUM    ASCII       PEDS        1.60        
  -1
~SP.SP
18/03/14
13:54:02.00
18/03/14
13:54:02.00
pili

650.000000
4









SPECTRUM 100,CPU32 MAIN 00.02.8200 12-DECEMBER-2006 10:00:00
MIR TGS
MIR
OPTKBR
78890
0.200000

4.000000
STRONG
RATIO
SPECTRUM
MAGNITUDE
UNIVERSAL ATR
DOUBLE

COMBINED


0


#HDR
-1
-1
#GR
CM-1
%T
0.00002384185791015625
0.0
4000.000000
-1.000000
3351
8
99.265260
84.765630
#DATA
4000.000000	99.239089 
3999.000000	99.247587 
3998.000000	99.258251 
3997.000000	99.265260 
3996.000000	99.265084 
3995.000000	99.258588 
3994.000000	99.250597 
3993.000000	99.246023 
3992.000000	99.246068 
3991.000000	99.247246 
3990.000000	99.244787 
3989.000000	99.237828 
3988.000000	99.231363 
3987.000000	99.232206 
3986.000000	99.242361 
3985.000000	99.256287 
3984.000000	99.265176 
3983.000000	99.264422 
3982.000000	99.256992 
3981.000000	99.249773 
3980.000000	99.246998 
3979.000000	99.247732 
3978.000000	99.248811 
3977.000000	99.248438 
3976.000000	99.246342 
3975.000000	99.241837 
3974.000000	99.233885 
3973.000000	99.223444 
3972.000000	99.214251 
3971.000000	99.210034 
3970.000000	99.210872 
3969.000000	99.213188 
3968.000000	99.213648 
3967.000000	99.212255 
3966.000000	99.211587 
3965.000000	99.213623 
3964.000000	99.218049 
3963.000000	99.223703 
3962.000000	99.230616 
3961.000000	99.239193 
3960.000000	99.247396 
3959.000000	99.250589 
3958.000000	99.245285 
3957.000000	99.233267 
3956.000000	99.221400 
3955.000000	99.216434 
3954.000000	99.220065 
3953.000000	99.228163 
3952.000000	99.234196 
3951.000000	99.233703 
3950.000000	99.226603 
3949.000000	99.217052 
3948.000000	99.210457 
3947.000000	99.209674 
3946.000000	99.213384 
3945.000000	99.217639 
3944.000000	99.219393 
3943.000000	99.219155 
3942.000000	99.220382 
3941.000000	99.224849 
3940.000000	99.229337 
3939.000000	99.228660 
3938.000000	99.221633 
3937.000000	99.212782 
3936.000000	99.207846 
3935.000000	99.208061 
3934.000000	99.210794 
3933.000000	99.214388 
3932.000000	99.220096 
3931.000000	99.227390 
3930.000000	99.230822 
3929.000000	99.225576 
3928.000000	99.214039 
3927.000000	99.204535 
3926.000000	99.203437 
3925.000000	99.208284 
3924.000000	99.210473 
3923.000000	99.204593 
3922.000000	99.193597 
3921.000000	99.186318 
3920.000000	99.189499 
3919.000000	99.201166 
3918.000000	99.211540 
3917.000000	99.212373 
3916.000000	99.205102 
3915.000000	99.198161 
3914.000000	99.197844 
3913.000000	99.204134 
3912.000000	99.213142 
3911.000000	99.221374 
3910.000000	99.226453 
3909.000000	99.227024 
3908.000000	99.224304 
3907.000000	99.221640 
3906.000000	99.221202 
3905.000000	99.219382 
3904.000000	99.209621 
3903.000000	99.191606 
3902.000000	99.173075 
3901.000000	99.161920 
3900.000000	99.160239 
3899.000000	99.165160 
3898.000000	99.173721 
3897.000000	99.184485 
3896.000000	99.196372 
3895.000000	99.209469 
3894.000000	99.224462 
3893.000000	99.239235 
3892.000000	99.247566 
3891.000000	99.245504 
3890.000000	99.237963 
3889.000000	99.232956 
3888.000000	99.233269 
3887.000000	99.233984 
3886.000000	99.228591 
3885.000000	99.218107 
3884.000000	99.209591 
3883.000000	99.206349 
3882.000000	99.205298 
3881.000000	99.202999 
3880.000000	99.201656 
3879.000000	99.205537 
3878.000000	99.216022 
3877.000000	99.231288 
3876.000000	99.247081 
3875.000000	99.256522 
3874.000000	99.254981 
3873.000000	99.245780 
3872.000000	99.237095 
3871.000000	99.232518 
3870.000000	99.229294 
3869.000000	99.226732 
3868.000000	99.225781 
3867.000000	99.223747 
3866.000000	99.217566 
3865.000000	99.209667 
3864.000000	99.206259 
3863.000000	99.208345 
3862.000000	99.208220 
3861.000000	99.200421 
3860.000000	99.188629 
3859.000000	99.180094 
3858.000000	99.178342 
3857.000000	99.183643 
3856.000000	99.196776 
3855.000000	99.216401 
3854.000000	99.227701 
3853.000000	99.224606 
3852.000000	99.222959 
3851.000000	99.230994 
3850.000000	99.239042 
3849.000000	99.238338 
3848.000000	99.228052 
3847.000000	99.214119 
3846.000000	99.203199 
3845.000000	99.198777 
3844.000000	99.201276 
3843.000000	99.209026 
3842.000000	99.217361 
3841.000000	99.221088 
3840.000000	99.218508 
3839.000000	99.213958 
3838.000000	99.214919 
3837.000000	99.224079 
3836.000000	99.237645 
3835.000000	99.250617 
3834.000000	99.259598 
3833.000000	99.262337 
3832.000000	99.257076 
3831.000000	99.244962 
3830.000000	99.231956 
3829.000000	99.225185 
3828.000000	99.226958 
3827.000000	99.233216 
3826.000000	99.237513 
3825.000000	99.237736 
3824.000000	99.237448 
3823.000000	99.240533 
3822.000000	99.243128 
3821.000000	99.239056 
3820.000000	99.232957 
3819.000000	99.232658 
3818.000000	99.236527 
3817.000000	99.235444 
3816.000000	99.225055 
3815.000000	99.213182 
3814.000000	99.208272 
3813.000000	99.208603 
3812.000000	99.207900 
3811.000000	99.205234 
3810.000000	99.205954 
3809.000000	99.214327 
3808.000000	99.225269 
3807.000000	99.229073 
3806.000000	99.223777 
3805.000000	99.216702 
3804.000000	99.215056 
3803.000000	99.220483 
3802.000000	99.227431 
3801.000000	99.230021 
3800.000000	99.228176 
3799.000000	99.222498 
3798.000000	99.213569 
3797.000000	99.206648 
3796.000000	99.208679 
3795.000000	99.219134 
3794.000000	99.227931 
3793.000000	99.225433 
3792.000000	99.212579 
3791.000000	99.199928 
3790.000000	99.196939 
3789.000000	99.203681 
3788.000000	99.213343 
3787.000000	99.219467 
3786.000000	99.219426 
3785.000000	99.213564 
3784.000000	99.203846 
3783.000000	99.193662 
3782.000000	99.186732 
3781.000000	99.184782 
3780.000000	99.186035 
3779.000000	99.188690 
3778.000000	99.193712 
3777.000000	99.202606 
3776.000000	99.213944 
3775.000000	99.223847 
3774.000000	99.229031 
3773.000000	99.228646 
3772.000000	99.223107 
3771.000000	99.212425 
3770.000000	99.197715 
3769.000000	99.184010 
3768.000000	99.177646 
3767.000000	99.180046 
3766.000000	99.187704 
3765.000000	99.196651 
3764.000000	99.205466 
3763.000000	99.214073 
3762.000000	99.220942 
3761.000000	99.223859 
3760.000000	99.222497 
3759.000000	99.219655 
3758.000000	99.216749 
3757.000000	99.211002 
3756.000000	99.199433 
3755.000000	99.183207 
3754.000000	99.168328 
3753.000000	99.163033 
3752.000000	99.171298 
3751.000000	99.185929 
3750.000000	99.194618 
3749.000000	99.192139 
3748.000000	99.183605 
3747.000000	99.176720 
3746.000000	99.173079 
3745.000000	99.164792 
3744.000000	99.151379 
3743.000000	99.142287 
3742.000000	99.137633 
3741.000000	99.129015 
3740.000000	99.114216 
3739.000000	99.101633 
3738.000000	99.103031 
3737.000000	99.120097 
3736.000000	99.143093 
3735.000000	99.162125 
3734.000000	99.172824 
3733.000000	99.172978 
3732.000000	99.163078 
3731.000000	99.148129 
3730.000000	99.133356 
3729.000000	99.119201 
3728.000000	99.103546 
3727.000000	99.086589 
3726.000000	99.072999 
3725.000000	99.068469 
3724.000000	99.075145 
3723.000000	99.091514 
3722.000000	99.113578 
3721.000000	99.136493 
3720.000000	99.154586 
3719.000000	99.163211 
3718.000000	99.161479 
3717.000000	99.151210 
3716.000000	99.135493 
3715.000000	99.117585 
3714.000000	99.102400 
3713.000000	99.097732 
3712.000000	99.108203 
3711.000000	99.130987 
3710.000000	99.157052 
3709.000000	99.177860 
3708.000000	99.191023 
3707.000000	99.197970 
3706.000000	99.200582 
3705.000000	99.199127 
3704.000000	99.192217 
3703.000000	99.179320 
3702.000000	99.163349 
3701.000000	99.151326 
3700.000000	99.148471 
3699.000000	99.152048 
3698.000000	99.154208 
3697.000000	99.149315 
3696.000000	99.139208 
3695.000000	99.131135 
3694.000000	99.131142 
3693.000000	99.141001 
3692.000000	99.158583 
3691.000000	99.178324 
3690.000000	99.190414 
3689.000000	99.188599 
3688.000000	99.179142 
3687.000000	99.172444 
3686.000000	99.171712 
3685.000000	99.173686 
3684.000000	99.173702 
3683.000000	99.169323 
3682.000000	99.160886 
3681.000000	99.149406 
3680.000000	99.137322 
3679.000000	99.130015 
3678.000000	99.133366 
3677.000000	99.146100 
3676.000000	99.154000 
3675.000000	99.149119 
3674.000000	99.139616 
3673.000000	99.133026 
3672.000000	99.129763 
3671.000000	99.131061 
3670.000000	99.138886 
3669.000000	99.152982 
3668.000000	99.167136 
3667.000000	99.172364 
3666.000000	99.166532 
3665.000000	99.156104 
3664.000000	99.149697 
3663.000000	99.150795 
3662.000000	99.154882 
3661.000000	99.153625 
3660.000000	99.143646 
3659.000000	99.130799 
3658.000000	99.126969 
3657.000000	99.139959 
3656.000000	99.166952 
3655.000000	99.197796 
3654.000000	99.221468 
3653.000000	99.229991 
3652.000000	99.218916 
3651.000000	99.188569 
3650.000000	99.145973 
3649.000000	99.107048 
3648.000000	99.088195 
3647.000000	99.092983 
3646.000000	99.111915 
3645.000000	99.132199 
3644.000000	99.144522 
3643.000000	99.146570 
3642.000000	99.144218 
3641.000000	99.146508 
3640.000000	99.157556 
3639.000000	99.171748 
3638.000000	99.179325 
3637.000000	99.175909 
3636.000000	99.165652 
3635.000000	99.156356 
3634.000000	99.151757 
3633.000000	99.149008 
3632.000000	99.142053 
3631.000000	99.126350 
3630.000000	99.102245 
3629.000000	99.077597 
3628.000000	99.064646 
3627.000000	99.064624 
3626.000000	99.066891 
3625.000000	99.065529 
3624.000000	99.066912 
3623.000000	99.082820 
3622.000000	99.118048 
3621.000000	99.161381 
3620.000000	99.188397 
3619.000000	99.181705 
3618.000000	99.149333 
3617.000000	99.114518 
3616.000000	99.094614 
3615.000000	99.093027 
3614.000000	99.101041 
3613.000000	99.105914 
3612.000000	99.100645 
3611.000000	99.087178 
3610.000000	99.074112 
3609.000000	99.072159 
3608.000000	99.086863 
3607.000000	99.112870 
3606.000000	99.136338 
3605.000000	99.145052 
3604.000000	99.136980 
3603.000000	99.121007 
3602.000000	99.110405 
3601.000000	99.112861 
3600.000000	99.124723 
3599.000000	99.135587 
3598.000000	99.138312 
3597.000000	99.133275 
3596.000000	99.125904 
3595.000000	99.121178 
3594.000000	99.120231 
3593.000000	99.121250 
3592.000000	99.121761 
3591.000000	99.119901 
3590.000000	99.115256 
3589.000000	99.108621 
3588.000000	99.101581 
3587.000000	99.097413 
3586.000000	99.100115 
3585.000000	99.110499 
3584.000000	99.126314 
3583.000000	99.144085 
3582.000000	99.161157 
3581.000000	99.174930 
3580.000000	99.182276 
3579.000000	99.181118 
3578.000000	99.173241 
3577.000000	99.164844 
3576.000000	99.162394 
3575.000000	99.168452 
3574.000000	99.180046 
3573.000000	99.191179 
3572.000000	99.195870 
3571.000000	99.189707 
3570.000000	99.170873 
3569.000000	99.142188 
3568.000000	99.112733 
3567.000000	99.094377 
3566.000000	99.093213 
3565.000000	99.105306 
3564.000000	99.122535 
3563.000000	99.139498 
3562.000000	99.154197 
3561.000000	99.164901 
3560.000000	99.168630 
3559.000000	99.163344 
3558.000000	99.151268 
3557.000000	99.138579 
3556.000000	99.130554 
3555.000000	99.127319 
3554.000000	99.124980 
3553.000000	99.120682 
3552.000000	99.115644 
3551.000000	99.111801 
3550.000000	99.108029 
3549.000000	99.102328 
3548.000000	99.096571 
3547.000000	99.095174 
3546.000000	99.098851 
3545.000000	99.103115 
3544.000000	99.105354 
3543.000000	99.109453 
3542.000000	99.120277 
3541.000000	99.136253 
3540.000000	99.149744 
3539.000000	99.153713 
3538.000000	99.147358 
3537.000000	99.136192 
3536.000000	99.128727 
3535.000000	99.130978 
3534.000000	99.142197 
3533.000000	99.155327 
3532.000000	99.163181 
3531.000000	99.164273 
3530.000000	99.161755 
3529.000000	99.157229 
3528.000000	99.148470 
3527.000000	99.133998 
3526.000000	99.117502 
3525.000000	99.105825 
3524.000000	99.103498 
3523.000000	99.110443 
3522.000000	99.124436 
3521.000000	99.143812 
3520.000000	99.166910 
3519.000000	99.189331 
3518.000000	99.203757 
3517.000000	99.203600 
3516.000000	99.187892 
3515.000000	99.162263 
3514.000000	99.135077 
3513.000000	99.112639 
3512.000000	99.098334 
3511.000000	99.095176 
3510.000000	99.106174 
3509.000000	99.129502 
3508.000000	99.154254 
3507.000000	99.164660 
3506.000000	99.151960 
3505.000000	99.122655 
3504.000000	99.094459 
3503.000000	99.081196 
3502.000000	99.082482 
3501.000000	99.089531 
3500.000000	99.097248 
3499.000000	99.106269 
3498.000000	99.115543 
3497.000000	99.119700 
3496.000000	99.116077 
3495.000000	99.110048 
3494.000000	99.109228 
3493.000000	99.114418 
3492.000000	99.120037 
3491.000000	99.121567 
3490.000000	99.118563 
3489.000000	99.111306 
3488.000000	99.099775 
3487.000000	99.087892 
3486.000000	99.084168 
3485.000000	99.093540 
3484.000000	99.109982 
3483.000000	99.120802 
3482.000000	99.119630 
3481.000000	99.113137 
3480.000000	99.113169 
3479.000000	99.123902 
3478.000000	99.138383 
3477.000000	99.146852 
3476.000000	99.146356 
3475.000000	99.142240 
3474.000000	99.141374 
3473.000000	99.145385 
3472.000000	99.150588 
3471.000000	99.152690 
3470.000000	99.150294 
3469.000000	99.144864 
3468.000000	99.139239 
3467.000000	99.136413 
3466.000000	99.138338 
3465.000000	99.144661 
3464.000000	99.152587 
3463.000000	99.158023 
3462.000000	99.157165 
3461.000000	99.148267 
3460.000000	99.133786 
3459.000000	99.121063 
3458.000000	99.118897 
3457.000000	99.130780 
3456.000000	99.151241 
3455.000000	99.168955 
3454.000000	99.174474 
3453.000000	99.165908 
3452.000000	99.148562 
3451.000000	99.130000 
3450.000000	99.114646 
3449.000000	99.102545 
3448.000000	99.092887 
3447.000000	99.087906 
3446.000000	99.091851 
3445.000000	99.106190 
3444.000000	99.126993 
3443.000000	99.146644 
3442.000000	99.157615 
3441.000000	99.156409 
3440.000000	99.146240 
3439.000000	99.135279 
3438.000000	99.129674 
3437.000000	99.127694 
3436.000000	99.123389 
3435.000000	99.115868 
3434.000000	99.111281 
3433.000000	99.113982 
3432.000000	99.119416 
3431.000000	99.119744 
3430.000000	99.114347 
3429.000000	99.110757 
3428.000000	99.115182 
3427.000000	99.125349 
3426.000000	99.133760 
3425.000000	99.135587 
3424.000000	99.131807 
3423.000000	99.126000 
3422.000000	99.120781 
3421.000000	99.118320 
3420.000000	99.122636 
3419.000000	99.137543 
3418.000000	99.160319 
3417.000000	99.179474 
3416.000000	99.182974 
3415.000000	99.170212 
3414.000000	99.153671 
3413.000000	99.146460 
3412.000000	99.149250 
3411.000000	99.151836 
3410.000000	99.146661 
3409.000000	99.137782 
3408.000000	99.135373 
3407.000000	99.143382 
3406.000000	99.155383 
3405.000000	99.162677 
3404.000000	99.163809 
3403.000000	99.163814 
3402.000000	99.165546 
3401.000000	99.165603 
3400.000000	99.160052 
3399.000000	99.150617 
3398.000000	99.142024 
3397.000000	99.135324 
3396.000000	99.127832 
3395.000000	99.119352 
3394.000000	99.114104 
3393.000000	99.115322 
3392.000000	99.121594 
3391.000000	99.130416 
3390.000000	99.141910 
3389.000000	99.155611 
3388.000000	99.166072 
3387.000000	99.166299 
3386.000000	99.156280 
3385.000000	99.144990 
3384.000000	99.142174 
3383.000000	99.148943 
3382.000000	99.157188 
3381.000000	99.157470 
3380.000000	99.147109 
3379.000000	99.131650 
3378.000000	99.119035 
3377.000000	99.112677 
3376.000000	99.110594 
3375.000000	99.110738 
3374.000000	99.114563 
3373.000000	99.123508 
3372.000000	99.133815 
3371.000000	99.138672 
3370.000000	99.136467 
3369.000000	99.134058 
3368.000000	99.139228 
3367.000000	99.150527 
3366.000000	99.156672 
3365.000000	99.147077 
3364.000000	99.122778 
3363.000000	99.096681 
3362.000000	99.083079 
3361.000000	99.086601 
3360.000000	99.100639 
3359.000000	99.114888 
3358.000000	99.123145 
3357.000000	99.124678 
3356.000000	99.121056 
3355.000000	99.113954 
3354.000000	99.105152 
3353.000000	99.096552 
3352.000000	99.089619 
3351.000000	99.085395 
3350.000000	99.084740 
3349.000000	99.087704 
3348.000000	99.093220 
3347.000000	99.100441 
3346.000000	99.110109 
3345.000000	99.123079 
3344.000000	99.137417 
3343.000000	99.148283 
3342.000000	99.151446 
3341.000000	99.146762 
3340.000000	99.138447 
3339.000000	99.132548 
3338.000000	99.133337 
3337.000000	99.140289 
3336.000000	99.147839 
3335.000000	99.149120 
3334.000000	99.140789 
3333.000000	99.124280 
3332.000000	99.103314 
3331.000000	99.081855 
3330.000000	99.064616 
3329.000000	99.057133 
3328.000000	99.062737 
3327.000000	99.078903 
3326.000000	99.097995 
3325.000000	99.112565 
3324.000000	99.119920 
3323.000000	99.121731 
3322.000000	99.120437 
3321.000000	99.117362 
3320.000000	99.113735 
3319.000000	99.111225 
3318.000000	99.110236 
3317.000000	99.109191 
3316.000000	99.107410 
3315.000000	99.107643 
3314.000000	99.112810 
3313.000000	99.119952 
3312.000000	99.120700 
3311.000000	99.109901 
3310.000000	99.092227 
3309.000000	99.077922 
3308.000000	99.072609 
3307.000000	99.073311 
3306.000000	99.074241 
3305.000000	99.074376 
3304.000000	99.078211 
3303.000000	99.089484 
3302.000000	99.104967 
3301.000000	99.115348 
3300.000000	99.113672 
3299.000000	99.102877 
3298.000000	99.093390 
3297.000000	99.092764 
3296.000000	99.099453 
3295.000000	99.107596 
3294.000000	99.114782 
3293.000000	99.122107 
3292.000000	99.128576 
3291.000000	99.129820 
3290.000000	99.123168 
3289.000000	99.111077 
3288.000000	99.098424 
3287.000000	99.088541 
3286.000000	99.082854 
3285.000000	99.082327 
3284.000000	99.087071 
3283.000000	99.095074 
3282.000000	99.102632 
3281.000000	99.106389 
3280.000000	99.105240 
3279.000000	99.101210 
3278.000000	99.098865 
3277.000000	99.102588 
3276.000000	99.112965 
3275.000000	99.125533 
3274.000000	99.133624 
3273.000000	99.133168 
3272.000000	99.125627 
3271.000000	99.116572 
3270.000000	99.110784 
3269.000000	99.108271 
3268.000000	99.105614 
3267.000000	99.101313 
3266.000000	99.098142 
3265.000000	99.099136 
3264.000000	99.102913 
3263.000000	99.105510 
3262.000000	99.106114 
3261.000000	99.107985 
3260.000000	99.113134 
3259.000000	99.118342 
3258.000000	99.117959 
3257.000000	99.109758 
3256.000000	99.097552 
3255.000000	99.088746 
3254.000000	99.089157 
3253.000000	99.098568 
3252.000000	99.111021 
3251.000000	99.120502 
3250.000000	99.125981 
3249.000000	99.129473 
3248.000000	99.130031 
3247.000000	99.123114 
3246.000000	99.107344 
3245.000000	99.089294 
3244.000000	99.078901 
3243.000000	99.080659 
3242.000000	99.090480 
3241.000000	99.100042 
3240.000000	99.102988 
3239.000000	99.098409 
3238.000000	99.090199 
3237.000000	99.082844 
3236.000000	99.077172 
3235.000000	99.070787 
3234.000000	99.063023 
3233.000000	99.057656 
3232.000000	99.059402 
3231.000000	99.068956 
3230.000000	99.082902 
3229.000000	99.097548 
3228.000000	99.111038 
3227.000000	99.122122 
3226.000000	99.128667 
3225.000000	99.127972 
3224.000000	99.118350 
3223.000000	99.101117 
3222.000000	99.081503 
3221.000000	99.066551 
3220.000000	99.060824 
3219.000000	99.064551 
3218.000000	99.076247 
3217.000000	99.095057 
3216.000000	99.118606 
3215.000000	99.140157 
3214.000000	99.151382 
3213.000000	99.148920 
3212.000000	99.136644 
3211.000000	99.121165 
3210.000000	99.106583 
3209.000000	99.094095 
3208.000000	99.085042 
3207.000000	99.082419 
3206.000000	99.088507 
3205.000000	99.100826 
3204.000000	99.110900 
3203.000000	99.108915 
3202.000000	99.091679 
3201.000000	99.066582 
3200.000000	99.046894 
3199.000000	99.042371 
3198.000000	99.053655 
3197.000000	99.074362 
3196.000000	99.097115 
3195.000000	99.117430 
3194.000000	99.133210 
3193.000000	99.142294 
3192.000000	99.142228 
3191.000000	99.133669 
3190.000000	99.123375 
3189.000000	99.120917 
3188.000000	99.129645 
3187.000000	99.141605 
3186.000000	99.144140 
3185.000000	99.132669 
3184.000000	99.115242 
3183.000000	99.103277 
3182.000000	99.099630 
3181.000000	99.097997 
3180.000000	99.093204 
3179.000000	99.088615 
3178.000000	99.091352 
3177.000000	99.102024 
3176.000000	99.112643 
3175.000000	99.115166 
3174.000000	99.109324 
3173.000000	99.100421 
3172.000000	99.091801 
3171.000000	99.082847 
3170.000000	99.074014 
3169.000000	99.069821 
3168.000000	99.074145 
3167.000000	99.084228 
3166.000000	99.092390 
3165.000000	99.094204 
3164.000000	99.093226 
3163.000000	99.096697 
3162.000000	99.107610 
3161.000000	99.122384 
3160.000000	99.135983 
3159.000000	99.147070 
3158.000000	99.156413 
3157.000000	99.161712 
3156.000000	99.157695 
3155.000000	99.142903 
3154.000000	99.123924 
3153.000000	99.109947 
3152.000000	99.103634 
3151.000000	99.099785 
3150.000000	99.092952 
3149.000000	99.083968 
3148.000000	99.078218 
3147.000000	99.079346 
3146.000000	99.085763 
3145.000000	99.092369 
3144.000000	99.095099 
3143.000000	99.094522 
3142.000000	99.095255 
3141.000000	99.100742 
3140.000000	99.108503 
3139.000000	99.111909 
3138.000000	99.107004 
3137.000000	99.096097 
3136.000000	99.084457 
3135.000000	99.075920 
3134.000000	99.072992 
3133.000000	99.078344 
3132.000000	99.092617 
3131.000000	99.111013 
3130.000000	99.124999 
3129.000000	99.128846 
3128.000000	99.124113 
3127.000000	99.117586 
3126.000000	99.115097 
3125.000000	99.117204 
3124.000000	99.120324 
3123.000000	99.121508 
3122.000000	99.121471 
3121.000000	99.122461 
3120.000000	99.124118 
3119.000000	99.123297 
3118.000000	99.118407 
3117.000000	99.112408 
3116.000000	99.110357 
3115.000000	99.114562 
3114.000000	99.122597 
3113.000000	99.129074 
3112.000000	99.129174 
3111.000000	99.122174 
3110.000000	99.112611 
3109.000000	99.106617 
3108.000000	99.105881 
3107.000000	99.106416 
3106.000000	99.104293 
3105.000000	99.101184 
3104.000000	99.102149 
3103.000000	99.108860 
3102.000000	99.117303 
3101.000000	99.122331 
3100.000000	99.122545 
3099.000000	99.120084 
3098.000000	99.117714 
3097.000000	99.117532 
3096.000000	99.120863 
3095.000000	99.127009 
3094.000000	99.132274 
3093.000000	99.132255 
3092.000000	99.126204 
3091.000000	99.118435 
3090.000000	99.114512 
3089.000000	99.116028 
3088.000000	99.119321 
3087.000000	99.118971 
3086.000000	99.112343 
3085.000000	99.101437 
3084.000000	99.091102 
3083.000000	99.085267 
3082.000000	99.084130 
3081.000000	99.084970 
3080.000000	99.086092 
3079.000000	99.089044 
3078.000000	99.095567 
3077.000000	99.102991 
3076.000000	99.105548 
3075.000000	99.101412 
3074.000000	99.096207 
3073.000000	99.097343 
3072.000000	99.105758 
3071.000000	99.115331 
3070.000000	99.119687 
3069.000000	99.117719 
3068.000000	99.113266 
3067.000000	99.111793 
3066.000000	99.117132 
3065.000000	99.128468 
3064.000000	99.139423 
3063.000000	99.142632 
3062.000000	99.137176 
3061.000000	99.130297 
3060.000000	99.130025 
3059.000000	99.136407 
3058.000000	99.141471 
3057.000000	99.137800 
3056.000000	99.126329 
3055.000000	99.115433 
3054.000000	99.112989 
3053.000000	99.119895 
3052.000000	99.130948 
3051.000000	99.140997 
3050.000000	99.148702 
3049.000000	99.154118 
3048.000000	99.155055 
3047.000000	99.148649 
3046.000000	99.136053 
3045.000000	99.122556 
3044.000000	99.112082 
3043.000000	99.104038 
3042.000000	99.096950 
3041.000000	99.092806 
3040.000000	99.095180 
3039.000000	99.104022 
3038.000000	99.114889 
3037.000000	99.123311 
3036.000000	99.128103 
3035.000000	99.130386 
3034.000000	99.131253 
3033.000000	99.131313 
3032.000000	99.131634 
3031.000000	99.134002 
3030.000000	99.139592 
3029.000000	99.146876 
3028.000000	99.151191 
3027.000000	99.147878 
3026.000000	99.136633 
3025.000000	99.121793 
3024.000000	99.108063 
3023.000000	99.097907 
3022.000000	99.094127 
3021.000000	99.101644 
3020.000000	99.122169 
3019.000000	99.147307 
3018.000000	99.161375 
3017.000000	99.154362 
3016.000000	99.131583 
3015.000000	99.109122 
3014.000000	99.100302 
3013.000000	99.106351 
3012.000000	99.117804 
3011.000000	99.122927 
3010.000000	99.116063 
3009.000000	99.100720 
3008.000000	99.086090 
3007.000000	99.080113 
3006.000000	99.084676 
3005.000000	99.096169 
3004.000000	99.109180 
3003.000000	99.119110 
3002.000000	99.122691 
3001.000000	99.118619 
3000.000000	99.108918 
2999.000000	99.098772 
2998.000000	99.093360 
2997.000000	99.094212 
2996.000000	99.098860 
2995.000000	99.103943 
2994.000000	99.108216 
2993.000000	99.112475 
2992.000000	99.117454 
2991.000000	99.122689 
2990.000000	99.127258 
2989.000000	99.130820 
2988.000000	99.133564 
2987.000000	99.135703 
2986.000000	99.137479 
2985.000000	99.139490 
2984.000000	99.142500 
2983.000000	99.146509 
2982.000000	99.149858 
2981.000000	99.149732 
2980.000000	99.144814 
2979.000000	99.138031 
2978.000000	99.135188 
2977.000000	99.138855 
2976.000000	99.144053 
2975.000000	99.142431 
2974.000000	99.131721 
2973.000000	99.119129 
2972.000000	99.114111 
2971.000000	99.119247 
2970.000000	99.129389 
2969.000000	99.137605 
2968.000000	99.139165 
2967.000000	99.131417 
2966.000000	99.114462 
2965.000000	99.093559 
2964.000000	99.077547 
2963.000000	99.071669 
2962.000000	99.072664 
2961.000000	99.073134 
2960.000000	99.070280 
2959.000000	99.068510 
2958.000000	99.073567 
2957.000000	99.086250 
2956.000000	99.102585 
2955.000000	99.117905 
2954.000000	99.128764 
2953.000000	99.131961 
2952.000000	99.124851 
2951.000000	99.108224 
2950.000000	99.087808 
2949.000000	99.071292 
2948.000000	99.063337 
2947.000000	99.063188 
2946.000000	99.066338 
2945.000000	99.068305 
2944.000000	99.068049 
2943.000000	99.068734 
2942.000000	99.074125 
2941.000000	99.082897 
2940.000000	99.087528 
2939.000000	99.080969 
2938.000000	99.064276 
2937.000000	99.045572 
2936.000000	99.031554 
2935.000000	99.022516 
2934.000000	99.016151 
2933.000000	99.012680 
2932.000000	99.013687 
2931.000000	99.018063 
2930.000000	99.022423 
2929.000000	99.025097 
2928.000000	99.027190 
2927.000000	99.029634 
2926.000000	99.031458 
2925.000000	99.031514 
2924.000000	99.030152 
2923.000000	99.028349 
2922.000000	99.026396 
2921.000000	99.024308 
2920.000000	99.022977 
2919.000000	99.024271 
2918.000000	99.029884 
2917.000000	99.039568 
2916.000000	99.049992 
2915.000000	99.056218 
2914.000000	99.056028 
2913.000000	99.052829 
2912.000000	99.052732 
2911.000000	99.057843 
2910.000000	99.063508 
2909.000000	99.063175 
2908.000000	99.055320 
2907.000000	99.044356 
2906.000000	99.035500 
2905.000000	99.030649 
2904.000000	99.029899 
2903.000000	99.034185 
2902.000000	99.044549 
2901.000000	99.057512 
2900.000000	99.065546 
2899.000000	99.063694 
2898.000000	99.054250 
2897.000000	99.043803 
2896.000000	99.036535 
2895.000000	99.032814 
2894.000000	99.033263 
2893.000000	99.040488 
2892.000000	99.055427 
2891.000000	99.074423 
2890.000000	99.091736 
2889.000000	99.103717 
2888.000000	99.109529 
2887.000000	99.109857 
2886.000000	99.106759 
2885.000000	99.103212 
2884.000000	99.100642 
2883.000000	99.097837 
2882.000000	99.094110 
2881.000000	99.092122 
2880.000000	99.094836 
2879.000000	99.100355 
2878.000000	99.102900 
2877.000000	99.099320 
2876.000000	99.092149 
2875.000000	99.085677 
2874.000000	99.081420 
2873.000000	99.078636 
2872.000000	99.077238 
2871.000000	99.078377 
2870.000000	99.082900 
2869.000000	99.090369 
2868.000000	99.098993 
2867.000000	99.105853 
2866.000000	99.108030 
2865.000000	99.104345 
2864.000000	99.095780 
2863.000000	99.084295 
2862.000000	99.072163 
2861.000000	99.062225 
2860.000000	99.056848 
2859.000000	99.055934 
2858.000000	99.057458 
2857.000000	99.060660 
2856.000000	99.066830 
2855.000000	99.075609 
2854.000000	99.082374 
2853.000000	99.081793 
2852.000000	99.073704 
2851.000000	99.063755 
2850.000000	99.058144 
2849.000000	99.058967 
2848.000000	99.064397 
2847.000000	99.071402 
2846.000000	99.077349 
2845.000000	99.080234 
2844.000000	99.078969 
2843.000000	99.073867 
2842.000000	99.066810 
2841.000000	99.061123 
2840.000000	99.060940 
2839.000000	99.069189 
2838.000000	99.084823 
2837.000000	99.102320 
2836.000000	99.115478 
2835.000000	99.122487 
2834.000000	99.126495 
2833.000000	99.130642 
2832.000000	99.133703 
2831.000000	99.132196 
2830.000000	99.126096 
2829.000000	99.120128 
2828.000000	99.118769 
2827.000000	99.121938 
2826.000000	99.126767 
2825.000000	99.131540 
2824.000000	99.135639 
2823.000000	99.137143 
2822.000000	99.133842 
2821.000000	99.126866 
2820.000000	99.120415 
2819.000000	99.116777 
2818.000000	99.113763 
2817.000000	99.108430 
2816.000000	99.101538 
2815.000000	99.096624 
2814.000000	99.095936 
2813.000000	99.099098 
2812.000000	99.104802 
2811.000000	99.111710 
2810.000000	99.117866 
2809.000000	99.121157 
2808.000000	99.120960 
2807.000000	99.118453 
2806.000000	99.115334 
2805.000000	99.113233 
2804.000000	99.114122 
2803.000000	99.119442 
2802.000000	99.127899 
2801.000000	99.135307 
2800.000000	99.138021 
2799.000000	99.136436 
2798.000000	99.134328 
2797.000000	99.134720 
2796.000000	99.136886 
2795.000000	99.137351 
2794.000000	99.133314 
2793.000000	99.125070 
2792.000000	99.115683 
2791.000000	99.108756 
2790.000000	99.106247 
2789.000000	99.107797 
2788.000000	99.111664 
2787.000000	99.116171 
2786.000000	99.120168 
2785.000000	99.122218 
2784.000000	99.120182 
2783.000000	99.112891 
2782.000000	99.102851 
2781.000000	99.096294 
2780.000000	99.098896 
2779.000000	99.110634 
2778.000000	99.125107 
2777.000000	99.134404 
2776.000000	99.134870 
2775.000000	99.128726 
2774.000000	99.120995 
2773.000000	99.115397 
2772.000000	99.112818 
2771.000000	99.112681 
2770.000000	99.114691 
2769.000000	99.118644 
2768.000000	99.123114 
2767.000000	99.125733 
2766.000000	99.125538 
2765.000000	99.124294 
2764.000000	99.124495 
2763.000000	99.126275 
2762.000000	99.127092 
2761.000000	99.124364 
2760.000000	99.117966 
2759.000000	99.110699 
2758.000000	99.106996 
2757.000000	99.110210 
2756.000000	99.119353 
2755.000000	99.128621 
2754.000000	99.131840 
2753.000000	99.127843 
2752.000000	99.120488 
2751.000000	99.113723 
2750.000000	99.108742 
2749.000000	99.106026 
2748.000000	99.107037 
2747.000000	99.111736 
2746.000000	99.116412 
2745.000000	99.116802 
2744.000000	99.112914 
2743.000000	99.108551 
2742.000000	99.106395 
2741.000000	99.105753 
2740.000000	99.105372 
2739.000000	99.106184 
2738.000000	99.109977 
2737.000000	99.116481 
2736.000000	99.123066 
2735.000000	99.127126 
2734.000000	99.128255 
2733.000000	99.128220 
2732.000000	99.128952 
2731.000000	99.130339 
2730.000000	99.130197 
2729.000000	99.126895 
2728.000000	99.121731 
2727.000000	99.117923 
2726.000000	99.117318 
2725.000000	99.119024 
2724.000000	99.121302 
2723.000000	99.123747 
2722.000000	99.127025 
2721.000000	99.131150 
2720.000000	99.134574 
2719.000000	99.134728 
2718.000000	99.129581 
2717.000000	99.119633 
2716.000000	99.108792 
2715.000000	99.102124 
2714.000000	99.101582 
2713.000000	99.104351 
2712.000000	99.106434 
2711.000000	99.107574 
2710.000000	99.111351 
2709.000000	99.120090 
2708.000000	99.130983 
2707.000000	99.138349 
2706.000000	99.139231 
2705.000000	99.135721 
2704.000000	99.131945 
2703.000000	99.130056 
2702.000000	99.129609 
2701.000000	99.129468 
2700.000000	99.128903 
2699.000000	99.127149 
2698.000000	99.123389 
2697.000000	99.117744 
2696.000000	99.111659 
2695.000000	99.106851 
2694.000000	99.104098 
2693.000000	99.102992 
2692.000000	99.102387 
2691.000000	99.101143 
2690.000000	99.099142 
2689.000000	99.097653 
2688.000000	99.098001 
2687.000000	99.099809 
2686.000000	99.101407 
2685.000000	99.102096 
2684.000000	99.103013 
2683.000000	99.105369 
2682.000000	99.108758 
2681.000000	99.111726 
2680.000000	99.113203 
2679.000000	99.112993 
2678.000000	99.111838 
2677.000000	99.111442 
2676.000000	99.113253 
2675.000000	99.116558 
2674.000000	99.119075 
2673.000000	99.120276 
2672.000000	99.122626 
2671.000000	99.128043 
2670.000000	99.134287 
2669.000000	99.136587 
2668.000000	99.132175 
2667.000000	99.121874 
2666.000000	99.108613 
2665.000000	99.096652 
2664.000000	99.091181 
2663.000000	99.095071 
2662.000000	99.104779 
2661.000000	99.111604 
2660.000000	99.108484 
2659.000000	99.095084 
2658.000000	99.076635 
2657.000000	99.059848 
2656.000000	99.050230 
2655.000000	99.050428 
2654.000000	99.058772 
2653.000000	99.070186 
2652.000000	99.080023 
2651.000000	99.086833 
2650.000000	99.091127 
2649.000000	99.092929 
2648.000000	99.091802 
2647.000000	99.088311 
2646.000000	99.084063 
2645.000000	99.080572 
2644.000000	99.078689 
2643.000000	99.078503 
2642.000000	99.079183 
2641.000000	99.079660 
2640.000000	99.079869 
2639.000000	99.080232 
2638.000000	99.079582 
2637.000000	99.075408 
2636.000000	99.067441 
2635.000000	99.059411 
2634.000000	99.055518 
2633.000000	99.056095 
2632.000000	99.058340 
2631.000000	99.060261 
2630.000000	99.061887 
2629.000000	99.063363 
2628.000000	99.064264 
2627.000000	99.064824 
2626.000000	99.065716 
2625.000000	99.066256 
2624.000000	99.064912 
2623.000000	99.062543 
2622.000000	99.063360 
2621.000000	99.070811 
2620.000000	99.082813 
2619.000000	99.092371 
2618.000000	99.093459 
2617.000000	99.086299 
2616.000000	99.077040 
2615.000000	99.072501 
2614.000000	99.074998 
2613.000000	99.081542 
2612.000000	99.087226 
2611.000000	99.089242 
2610.000000	99.088546 
2609.000000	99.088619 
2608.000000	99.092170 
2607.000000	99.097846 
2606.000000	99.100473 
2605.000000	99.096043 
2604.000000	99.086514 
2603.000000	99.077918 
2602.000000	99.073304 
2601.000000	99.069508 
2600.000000	99.061893 
2599.000000	99.050484 
2598.000000	99.039978 
2597.000000	99.035192 
2596.000000	99.038054 
2595.000000	99.047555 
2594.000000	99.060316 
2593.000000	99.071616 
2592.000000	99.077784 
2591.000000	99.077846 
2590.000000	99.072419 
2589.000000	99.062285 
2588.000000	99.049436 
2587.000000	99.038153 
2586.000000	99.032649 
2585.000000	99.033557 
2584.000000	99.037894 
2583.000000	99.041953 
2582.000000	99.043398 
2581.000000	99.042369 
2580.000000	99.042890 
2579.000000	99.051537 
2578.000000	99.070764 
2577.000000	99.093018 
2576.000000	99.104751 
2575.000000	99.098034 
2574.000000	99.076806 
2573.000000	99.051540 
2572.000000	99.030572 
2571.000000	99.017822 
2570.000000	99.015465 
2569.000000	99.024374 
2568.000000	99.041554 
2567.000000	99.059884 
2566.000000	99.072166 
2565.000000	99.075372 
2564.000000	99.071331 
2563.000000	99.064803 
2562.000000	99.061424 
2561.000000	99.065459 
2560.000000	99.076499 
2559.000000	99.087687 
2558.000000	99.089617 
2557.000000	99.078453 
2556.000000	99.059753 
2555.000000	99.042474 
2554.000000	99.029763 
2553.000000	99.018206 
2552.000000	99.006301 
2551.000000	99.000212 
2550.000000	99.008138 
2549.000000	99.029661 
2548.000000	99.053030 
2547.000000	99.064190 
2546.000000	99.058961 
2545.000000	99.046988 
2544.000000	99.043369 
2543.000000	99.054759 
2542.000000	99.073239 
2541.000000	99.084899 
2540.000000	99.084271 
2539.000000	99.078546 
2538.000000	99.078055 
2537.000000	99.085948 
2536.000000	99.098027 
2535.000000	99.108745 
2534.000000	99.114505 
2533.000000	99.113735 
2532.000000	99.107312 
2531.000000	99.098107 
2530.000000	99.088076 
2529.000000	99.077071 
2528.000000	99.065885 
2527.000000	99.057735 
2526.000000	99.053941 
2525.000000	99.050565 
2524.000000	99.043102 
2523.000000	99.033041 
2522.000000	99.026137 
2521.000000	99.025395 
2520.000000	99.029695 
2519.000000	99.038446 
2518.000000	99.052915 
2517.000000	99.072145 
2516.000000	99.091063 
2515.000000	99.103902 
2514.000000	99.107597 
2513.000000	99.102092 
2512.000000	99.090040 
2511.000000	99.076297 
2510.000000	99.065207 
2509.000000	99.058174 
2508.000000	99.055198 
2507.000000	99.056650 
2506.000000	99.060188 
2505.000000	99.058389 
2504.000000	99.045742 
2503.000000	99.028534 
2502.000000	99.021889 
2501.000000	99.034291 
2500.000000	99.058360 
2499.000000	99.078604 
2498.000000	99.085137 
2497.000000	99.078922 
2496.000000	99.068333 
2495.000000	99.063349 
2494.000000	99.068958 
2493.000000	99.080121 
2492.000000	99.085207 
2491.000000	99.077631 
2490.000000	99.062865 
2489.000000	99.052001 
2488.000000	99.050736 
2487.000000	99.057219 
2486.000000	99.067783 
2485.000000	99.080158 
2484.000000	99.091492 
2483.000000	99.097452 
2482.000000	99.095273 
2481.000000	99.086635 
2480.000000	99.076787 
2479.000000	99.070918 
2478.000000	99.070672 
2477.000000	99.073253 
2476.000000	99.074087 
2475.000000	99.070492 
2474.000000	99.062294 
2473.000000	99.049949 
2472.000000	99.034813 
2471.000000	99.021875 
2470.000000	99.019050 
2469.000000	99.030715 
2468.000000	99.052318 
2467.000000	99.072872 
2466.000000	99.082589 
2465.000000	99.078032 
2464.000000	99.061848 
2463.000000	99.039603 
2462.000000	99.017053 
2461.000000	98.999450 
2460.000000	98.991809 
2459.000000	98.996803 
2458.000000	99.010255 
2457.000000	99.021517 
2456.000000	99.023527 
2455.000000	99.022389 
2454.000000	99.031122 
2453.000000	99.051836 
2452.000000	99.069772 
2451.000000	99.069330 
2450.000000	99.051903 
2449.000000	99.032731 
2448.000000	99.023374 
2447.000000	99.023405 
2446.000000	99.027344 
2445.000000	99.032019 
2444.000000	99.035907 
2443.000000	99.037976 
2442.000000	99.040857 
2441.000000	99.050808 
2440.000000	99.070095 
2439.000000	99.091375 
2438.000000	99.103403 
2437.000000	99.101755 
2436.000000	99.091362 
2435.000000	99.079298 
2434.000000	99.068378 
2433.000000	99.058334 
2432.000000	99.049913 
2431.000000	99.045127 
2430.000000	99.044409 
2429.000000	99.045871 
2428.000000	99.047679 
2427.000000	99.049530 
2426.000000	99.051255 
2425.000000	99.051534 
2424.000000	99.049191 
2423.000000	99.044658 
2422.000000	99.038716 
2421.000000	99.030862 
2420.000000	99.021222 
2419.000000	99.013803 
2418.000000	99.014961 
2417.000000	99.026868 
2416.000000	99.043520 
2415.000000	99.054951 
2414.000000	99.055837 
2413.000000	99.050060 
2412.000000	99.047205 
2411.000000	99.054224 
2410.000000	99.069432 
2409.000000	99.084369 
2408.000000	99.091992 
2407.000000	99.092579 
2406.000000	99.091132 
2405.000000	99.090729 
2404.000000	99.090793 
2403.000000	99.090737 
2402.000000	99.091581 
2401.000000	99.093164 
2400.000000	99.092869 
2399.000000	99.088876 
2398.000000	99.082643 
2397.000000	99.076705 
2396.000000	99.072016 
2395.000000	99.068983 
2394.000000	99.068887 
2393.000000	99.071804 
2392.000000	99.074527 
2391.000000	99.073107 
2390.000000	99.066593 
2389.000000	99.055869 
2388.000000	99.039561 
2387.000000	99.014535 
2386.000000	98.981817 
2385.000000	98.950259 
2384.000000	98.932562 
2383.000000	98.937503 
2382.000000	98.965744 
2381.000000	99.011279 
2380.000000	99.064725 
2379.000000	99.114944 
2378.000000	99.149999 
2377.000000	99.160433 
2376.000000	99.144444 
2375.000000	99.110860 
2374.000000	99.075875 
2373.000000	99.053599 
2372.000000	99.045947 
2371.000000	99.040643 
2370.000000	99.022825 
2369.000000	98.993081 
2368.000000	98.971938 
2367.000000	98.979715 
2366.000000	99.011471 
2365.000000	99.039840 
2364.000000	99.046166 
2363.000000	99.039877 
2362.000000	99.039567 
2361.000000	99.042941 
2360.000000	99.028158 
2359.000000	98.988740 
2358.000000	98.950138 
2357.000000	98.945605 
2356.000000	98.982793 
2355.000000	99.040185 
2354.000000	99.090273 
2353.000000	99.112685 
2352.000000	99.100866 
2351.000000	99.065134 
2350.000000	99.026004 
2349.000000	99.001913 
2348.000000	98.996892 
2347.000000	99.001996 
2346.000000	99.002658 
2345.000000	98.990438 
2344.000000	98.963623 
2343.000000	98.930468 
2342.000000	98.919415 
2341.000000	98.951292 
2340.000000	99.008498 
2339.000000	99.047046 
2338.000000	99.042222 
2337.000000	99.007939 
2336.000000	98.975200 
2335.000000	98.962964 
2334.000000	98.971712 
2333.000000	98.987276 
2332.000000	98.991803 
2331.000000	98.977604 
2330.000000	98.952311 
2329.000000	98.928069 
2328.000000	98.905584 
2327.000000	98.882545 
2326.000000	98.862971 
2325.000000	98.854822 
2324.000000	98.858185 
2323.000000	98.862453 
2322.000000	98.862513 
2321.000000	98.864683 
2320.000000	98.877780 
2319.000000	98.898451 
2318.000000	98.916419 
2317.000000	98.927306 
2316.000000	98.934962 
2315.000000	98.941481 
2314.000000	98.940504 
2313.000000	98.924712 
2312.000000	98.896799 
2311.000000	98.870992 
2310.000000	98.861385 
2309.000000	98.871336 
2308.000000	98.892257 
2307.000000	98.909982 
2306.000000	98.912287 
2305.000000	98.895287 
2304.000000	98.867243 
2303.000000	98.843572 
2302.000000	98.835180 
2301.000000	98.840095 
2300.000000	98.848627 
2299.000000	98.856263 
2298.000000	98.868360 
2297.000000	98.891731 
2296.000000	98.922841 
2295.000000	98.947897 
2294.000000	98.954744 
2293.000000	98.945534 
2292.000000	98.935043 
2291.000000	98.935215 
2290.000000	98.942165 
2289.000000	98.941921 
2288.000000	98.928916 
2287.000000	98.913858 
2286.000000	98.911283 
2285.000000	98.923544 
2284.000000	98.940809 
2283.000000	98.952562 
2282.000000	98.955102 
2281.000000	98.951266 
2280.000000	98.948244 
2279.000000	98.951948 
2278.000000	98.958265 
2277.000000	98.953842 
2276.000000	98.933000 
2275.000000	98.909394 
2274.000000	98.900972 
2273.000000	98.907302 
2272.000000	98.914718 
2271.000000	98.922091 
2270.000000	98.943502 
2269.000000	98.980496 
2268.000000	99.009495 
2267.000000	99.009148 
2266.000000	98.988262 
2265.000000	98.972727 
2264.000000	98.972279 
2263.000000	98.975214 
2262.000000	98.972030 
2261.000000	98.969049 
2260.000000	98.976060 
2259.000000	98.990532 
2258.000000	98.998803 
2257.000000	98.988675 
2256.000000	98.960212 
2255.000000	98.927425 
2254.000000	98.909512 
2253.000000	98.916929 
2252.000000	98.945157 
2251.000000	98.981883 
2250.000000	99.016543 
2249.000000	99.041138 
2248.000000	99.049061 
2247.000000	99.039704 
2246.000000	99.021781 
2245.000000	99.007097 
2244.000000	99.000716 
2243.000000	99.000046 
2242.000000	99.001485 
2241.000000	99.004648 
2240.000000	99.011002 
2239.000000	99.020008 
2238.000000	99.025543 
2237.000000	99.017469 
2236.000000	98.991745 
2235.000000	98.958840 
2234.000000	98.936028 
2233.000000	98.930491 
2232.000000	98.936190 
2231.000000	98.946487 
2230.000000	98.959308 
2229.000000	98.969035 
2228.000000	98.968000 
2227.000000	98.961920 
2226.000000	98.969063 
2225.000000	98.993464 
2224.000000	99.011336 
2223.000000	98.997826 
2222.000000	98.958874 
2221.000000	98.924030 
2220.000000	98.916012 
2219.000000	98.940172 
2218.000000	98.992591 
2217.000000	99.057433 
2216.000000	99.101222 
2215.000000	99.093302 
2214.000000	99.038196 
2213.000000	98.974547 
2212.000000	98.937169 
2211.000000	98.929938 
2210.000000	98.936997 
2209.000000	98.946720 
2208.000000	98.958720 
2207.000000	98.976020 
2206.000000	98.996178 
2205.000000	99.007858 
2204.000000	98.998158 
2203.000000	98.968507 
2202.000000	98.938769 
2201.000000	98.926790 
2200.000000	98.927869 
2199.000000	98.926025 
2198.000000	98.921233 
2197.000000	98.928465 
2196.000000	98.948595 
2195.000000	98.958244 
2194.000000	98.936881 
2193.000000	98.892464 
2192.000000	98.851633 
2191.000000	98.832715 
2190.000000	98.836259 
2189.000000	98.854596 
2188.000000	98.881004 
2187.000000	98.910961 
2186.000000	98.939617 
2185.000000	98.960075 
2184.000000	98.966959 
2183.000000	98.964566 
2182.000000	98.967024 
2181.000000	98.982942 
2180.000000	99.002583 
2179.000000	99.009013 
2178.000000	98.999852 
2177.000000	98.989541 
2176.000000	98.991806 
2175.000000	99.008812 
2174.000000	99.035967 
2173.000000	99.065057 
2172.000000	99.081222 
2171.000000	99.069683 
2170.000000	99.031962 
2169.000000	98.988348 
2168.000000	98.957667 
2167.000000	98.938565 
2166.000000	98.915296 
2165.000000	98.878334 
2164.000000	98.836501 
2163.000000	98.812183 
2162.000000	98.826081 
2161.000000	98.881098 
2160.000000	98.957735 
2159.000000	99.028906 
2158.000000	99.077884 
2157.000000	99.097847 
2156.000000	99.084471 
2155.000000	99.042041 
2154.000000	98.991380 
2153.000000	98.957644 
2152.000000	98.947442 
2151.000000	98.945611 
2150.000000	98.935908 
2149.000000	98.919029 
2148.000000	98.909472 
2147.000000	98.918868 
2146.000000	98.943226 
2145.000000	98.964851 
2144.000000	98.969121 
2143.000000	98.960592 
2142.000000	98.957711 
2141.000000	98.969999 
2140.000000	98.987746 
2139.000000	98.998397 
2138.000000	99.003861 
2137.000000	99.013198 
2136.000000	99.025945 
2135.000000	99.034329 
2134.000000	99.038071 
2133.000000	99.045542 
2132.000000	99.061969 
2131.000000	99.085447 
2130.000000	99.111759 
2129.000000	99.134011 
2128.000000	99.140540 
2127.000000	99.124382 
2126.000000	99.095257 
2125.000000	99.072011 
2124.000000	99.060597 
2123.000000	99.048811 
2122.000000	99.026448 
2121.000000	99.001180 
2120.000000	98.987473 
2119.000000	98.986101 
2118.000000	98.983190 
2117.000000	98.968048 
2116.000000	98.946380 
2115.000000	98.935823 
2114.000000	98.951209 
2113.000000	98.992693 
2112.000000	99.044780 
2111.000000	99.086730 
2110.000000	99.106008 
2109.000000	99.104436 
2108.000000	99.094111 
2107.000000	99.087980 
2106.000000	99.090896 
2105.000000	99.095618 
2104.000000	99.088965 
2103.000000	99.066485 
2102.000000	99.040001 
2101.000000	99.025246 
2100.000000	99.022644 
2099.000000	99.018008 
2098.000000	99.004700 
2097.000000	98.996842 
2096.000000	99.012617 
2095.000000	99.048134 
2094.000000	99.076931 
2093.000000	99.077417 
2092.000000	99.055467 
2091.000000	99.036270 
2090.000000	99.036733 
2089.000000	99.050316 
2088.000000	99.059871 
2087.000000	99.059835 
2086.000000	99.058225 
2085.000000	99.058324 
2084.000000	99.049353 
2083.000000	99.021533 
2082.000000	98.983177 
2081.000000	98.953461 
2080.000000	98.941405 
2079.000000	98.941848 
2078.000000	98.950755 
2077.000000	98.971539 
2076.000000	99.001919 
2075.000000	99.025475 
2074.000000	99.025504 
2073.000000	99.003596 
2072.000000	98.976855 
2071.000000	98.957991 
2070.000000	98.946381 
2069.000000	98.940510 
2068.000000	98.950903 
2067.000000	98.991328 
2066.000000	99.055222 
2065.000000	99.108200 
2064.000000	99.114384 
2063.000000	99.070885 
2062.000000	99.009700 
2061.000000	98.967041 
2060.000000	98.956980 
2059.000000	98.972630 
2058.000000	99.000142 
2057.000000	99.024120 
2056.000000	99.029201 
2055.000000	99.008507 
2054.000000	98.968821 
2053.000000	98.922007 
2052.000000	98.877010 
2051.000000	98.846577 
2050.000000	98.851733 
2049.000000	98.901871 
2048.000000	98.972710 
2047.000000	99.024044 
2046.000000	99.039429 
2045.000000	99.031531 
2044.000000	99.013100 
2043.000000	98.984861 
2042.000000	98.954452 
2041.000000	98.942378 
2040.000000	98.955205 
2039.000000	98.971567 
2038.000000	98.970869 
2037.000000	98.962801 
2036.000000	98.970773 
2035.000000	98.994124 
2034.000000	99.009119 
2033.000000	99.009089 
2032.000000	99.020781 
2031.000000	99.066493 
2030.000000	99.122263 
2029.000000	99.133180 
2028.000000	99.075557 
2027.000000	98.990736 
2026.000000	98.944894 
2025.000000	98.961762 
2024.000000	99.008126 
2023.000000	99.043484 
2022.000000	99.062545 
2021.000000	99.079381 
2020.000000	99.092105 
2019.000000	99.086664 
2018.000000	99.067387 
2017.000000	99.058072 
2016.000000	99.067415 
2015.000000	99.072813 
2014.000000	99.046777 
2013.000000	98.988009 
2012.000000	98.922508 
2011.000000	98.881613 
2010.000000	98.881102 
2009.000000	98.912157 
2008.000000	98.948391 
2007.000000	98.968346 
2006.000000	98.970698 
2005.000000	98.963599 
2004.000000	98.948078 
2003.000000	98.922839 
2002.000000	98.899344 
2001.000000	98.896942 
2000.000000	98.921124 
1999.000000	98.955354 
1998.000000	98.974184 
1997.000000	98.959480 
1996.000000	98.909318 
1995.000000	98.840365 
1994.000000	98.782766 
1993.000000	98.765099 
1992.000000	98.796873 
1991.000000	98.866266 
1990.000000	98.950257 
1989.000000	99.019005 
1988.000000	99.043239 
1987.000000	99.017329 
1986.000000	98.971417 
1985.000000	98.943861 
1984.000000	98.942882 
1983.000000	98.949714 
1982.000000	98.954542 
1981.000000	98.967420 
1980.000000	98.992740 
1979.000000	99.016589 
1978.000000	99.029147 
1977.000000	99.039555 
1976.000000	99.053898 
1975.000000	99.058690 
1974.000000	99.042876 
1973.000000	99.018061 
1972.000000	99.001101 
1971.000000	98.991176 
1970.000000	98.978908 
1969.000000	98.964808 
1968.000000	98.952574 
1967.000000	98.936268 
1966.000000	98.914661 
1965.000000	98.909027 
1964.000000	98.943350 
1963.000000	99.009333 
1962.000000	99.068115 
1961.000000	99.089713 
1960.000000	99.078793 
1959.000000	99.057270 
1958.000000	99.037393 
1957.000000	99.021596 
1956.000000	99.015564 
1955.000000	99.027123 
1954.000000	99.053365 
1953.000000	99.077019 
1952.000000	99.078363 
1951.000000	99.051143 
1950.000000	99.010189 
1949.000000	98.983359 
1948.000000	98.990727 
1947.000000	99.027749 
1946.000000	99.069259 
1945.000000	99.091801 
1944.000000	99.091308 
1943.000000	99.078839 
1942.000000	99.063283 
1941.000000	99.044914 
1940.000000	99.026531 
1939.000000	99.019949 
1938.000000	99.033499 
1937.000000	99.057498 
1936.000000	99.070847 
1935.000000	99.063616 
1934.000000	99.046888 
1933.000000	99.039211 
1932.000000	99.047673 
1931.000000	99.065062 
1930.000000	99.080283 
1929.000000	99.084613 
1928.000000	99.074543 
1927.000000	99.055982 
1926.000000	99.042289 
1925.000000	99.041492 
1924.000000	99.045874 
1923.000000	99.041914 
1922.000000	99.029367 
1921.000000	99.020319 
1920.000000	99.021526 
1919.000000	99.027792 
1918.000000	99.032004 
1917.000000	99.033321 
1916.000000	99.033328 
1915.000000	99.031472 
1914.000000	99.025876 
1913.000000	99.014893 
1912.000000	98.998111 
1911.000000	98.979708 
1910.000000	98.970525 
1909.000000	98.979323 
1908.000000	99.002354 
1907.000000	99.027057 
1906.000000	99.043722 
1905.000000	99.048924 
1904.000000	99.041894 
1903.000000	99.026919 
1902.000000	99.016166 
1901.000000	99.019921 
1900.000000	99.035167 
1899.000000	99.049466 
1898.000000	99.054398 
1897.000000	99.050692 
1896.000000	99.042334 
1895.000000	99.034094 
1894.000000	99.033306 
1893.000000	99.043711 
1892.000000	99.058210 
1891.000000	99.065156 
1890.000000	99.062881 
1889.000000	99.062194 
1888.000000	99.071690 
1887.000000	99.088802 
1886.000000	99.105032 
1885.000000	99.111621 
1884.000000	99.102461 
1883.000000	99.079078 
1882.000000	99.052573 
1881.000000	99.034510 
1880.000000	99.026581 
1879.000000	99.022805 
1878.000000	99.019461 
1877.000000	99.018043 
1876.000000	99.019114 
1875.000000	99.020551 
1874.000000	99.023139 
1873.000000	99.029101 
1872.000000	99.034070 
1871.000000	99.029217 
1870.000000	99.015504 
1869.000000	99.008124 
1868.000000	99.015778 
1867.000000	99.027395 
1866.000000	99.029013 
1865.000000	99.019686 
1864.000000	99.009057 
1863.000000	99.007769 
1862.000000	99.020874 
1861.000000	99.045298 
1860.000000	99.069853 
1859.000000	99.081833 
1858.000000	99.076841 
1857.000000	99.061453 
1856.000000	99.047410 
1855.000000	99.044166 
1854.000000	99.053111 
1853.000000	99.063827 
1852.000000	99.060862 
1851.000000	99.038845 
1850.000000	99.008203 
1849.000000	98.985676 
1848.000000	98.979323 
1847.000000	98.985907 
1846.000000	99.000071 
1845.000000	99.018140 
1844.000000	99.032206 
1843.000000	99.033206 
1842.000000	99.022431 
1841.000000	99.009294 
1840.000000	99.001623 
1839.000000	99.000698 
1838.000000	99.003610 
1837.000000	99.009102 
1836.000000	99.018161 
1835.000000	99.030569 
1834.000000	99.042621 
1833.000000	99.049853 
1832.000000	99.052088 
1831.000000	99.052861 
1830.000000	99.055734 
1829.000000	99.063416 
1828.000000	99.076003 
1827.000000	99.088287 
1826.000000	99.092053 
1825.000000	99.084926 
1824.000000	99.074532 
1823.000000	99.069718 
1822.000000	99.072438 
1821.000000	99.078325 
1820.000000	99.081282 
1819.000000	99.077046 
1818.000000	99.066403 
1817.000000	99.054256 
1816.000000	99.042796 
1815.000000	99.031999 
1814.000000	99.026190 
1813.000000	99.033793 
1812.000000	99.056110 
1811.000000	99.079263 
1810.000000	99.088851 
1809.000000	99.085862 
1808.000000	99.079735 
1807.000000	99.076611 
1806.000000	99.077607 
1805.000000	99.079871 
1804.000000	99.077411 
1803.000000	99.066680 
1802.000000	99.051245 
1801.000000	99.037749 
1800.000000	99.026569 
1799.000000	99.014495 
1798.000000	99.007344 
1797.000000	99.014384 
1796.000000	99.033133 
1795.000000	99.052286 
1794.000000	99.064730 
1793.000000	99.071757 
1792.000000	99.074318 
1791.000000	99.070600 
1790.000000	99.066268 
1789.000000	99.069721 
1788.000000	99.078958 
1787.000000	99.083586 
1786.000000	99.078521 
1785.000000	99.069401 
1784.000000	99.061619 
1783.000000	99.054433 
1782.000000	99.046710 
1781.000000	99.041925 
1780.000000	99.043673 
1779.000000	99.048652 
1778.000000	99.052889 
1777.000000	99.057771 
1776.000000	99.066659 
1775.000000	99.079447 
1774.000000	99.089490 
1773.000000	99.089199 
1772.000000	99.079972 
1771.000000	99.069459 
1770.000000	99.061196 
1769.000000	99.056162 
1768.000000	99.055508 
1767.000000	99.056294 
1766.000000	99.053832 
1765.000000	99.050315 
1764.000000	99.054476 
1763.000000	99.070851 
1762.000000	99.090922 
1761.000000	99.102192 
1760.000000	99.102168 
1759.000000	99.094281 
1758.000000	99.079477 
1757.000000	99.056607 
1756.000000	99.030724 
1755.000000	99.010453 
1754.000000	99.000385 
1753.000000	99.002956 
1752.000000	99.019548 
1751.000000	99.040754 
1750.000000	99.046920 
1749.000000	99.032142 
1748.000000	99.012509 
1747.000000	99.003900 
1746.000000	99.004044 
1745.000000	99.004623 
1744.000000	99.007081 
1743.000000	99.014374 
1742.000000	99.020471 
1741.000000	99.020144 
1740.000000	99.019719 
1739.000000	99.027486 
1738.000000	99.037249 
1737.000000	99.036471 
1736.000000	99.019201 
1735.000000	98.990680 
1734.000000	98.963555 
1733.000000	98.947663 
1732.000000	98.947038 
1731.000000	98.961694 
1730.000000	98.986421 
1729.000000	99.007913 
1728.000000	99.017542 
1727.000000	99.019066 
1726.000000	99.019843 
1725.000000	99.020749 
1724.000000	99.018798 
1723.000000	99.012725 
1722.000000	99.005855 
1721.000000	99.001675 
1720.000000	99.001518 
1719.000000	99.005912 
1718.000000	99.015811 
1717.000000	99.029920 
1716.000000	99.037495 
1715.000000	99.030771 
1714.000000	99.018824 
1713.000000	99.011799 
1712.000000	99.008221 
1711.000000	99.004541 
1710.000000	99.003178 
1709.000000	99.006108 
1708.000000	99.010273 
1707.000000	99.013897 
1706.000000	99.024526 
1705.000000	99.048268 
1704.000000	99.067162 
1703.000000	99.059103 
1702.000000	99.020917 
1701.000000	98.983836 
1700.000000	98.984756 
1699.000000	99.005560 
1698.000000	99.016776 
1697.000000	99.019713 
1696.000000	99.019826 
1695.000000	99.017911 
1694.000000	99.017862 
1693.000000	99.021116 
1692.000000	99.022228 
1691.000000	99.015651 
1690.000000	99.004921 
1689.000000	98.998068 
1688.000000	98.996413 
1687.000000	98.995569 
1686.000000	98.994514 
1685.000000	99.000270 
1684.000000	99.011196 
1683.000000	99.020262 
1682.000000	99.026363 
1681.000000	99.027864 
1680.000000	99.028667 
1679.000000	99.030699 
1678.000000	99.032341 
1677.000000	99.031475 
1676.000000	99.032605 
1675.000000	99.040822 
1674.000000	99.048731 
1673.000000	99.045296 
1672.000000	99.030048 
1671.000000	99.010668 
1670.000000	98.998569 
1669.000000	98.998673 
1668.000000	99.007390 
1667.000000	99.017393 
1666.000000	99.019629 
1665.000000	99.011168 
1664.000000	98.998479 
1663.000000	98.992981 
1662.000000	98.998875 
1661.000000	99.007882 
1660.000000	99.016452 
1659.000000	99.029874 
1658.000000	99.050153 
1657.000000	99.065383 
1656.000000	99.066337 
1655.000000	99.055226 
1654.000000	99.047885 
1653.000000	99.046929 
1652.000000	99.045898 
1651.000000	99.045424 
1650.000000	99.038201 
1649.000000	99.025243 
1648.000000	99.012225 
1647.000000	99.007759 
1646.000000	99.008356 
1645.000000	99.009031 
1644.000000	99.007072 
1643.000000	99.004115 
1642.000000	99.002613 
1641.000000	99.002034 
1640.000000	98.997876 
1639.000000	98.989471 
1638.000000	98.984364 
1637.000000	98.991009 
1636.000000	99.003436 
1635.000000	99.008612 
1634.000000	99.007060 
1633.000000	99.006560 
1632.000000	99.008242 
1631.000000	99.009004 
1630.000000	99.008116 
1629.000000	99.007625 
1628.000000	99.010885 
1627.000000	99.019505 
1626.000000	99.029589 
1625.000000	99.033095 
1624.000000	99.025517 
1623.000000	99.012850 
1622.000000	99.005594 
1621.000000	99.004243 
1620.000000	99.004490 
1619.000000	99.006791 
1618.000000	99.015581 
1617.000000	99.029100 
1616.000000	99.039154 
1615.000000	99.044911 
1614.000000	99.045512 
1613.000000	99.035658 
1612.000000	99.016408 
1611.000000	98.999211 
1610.000000	98.992825 
1609.000000	98.991418 
1608.000000	98.986812 
1607.000000	98.983294 
1606.000000	98.986684 
1605.000000	98.991193 
1604.000000	98.989606 
1603.000000	98.985108 
1602.000000	98.985361 
1601.000000	98.991575 
1600.000000	99.000155 
1599.000000	99.008872 
1598.000000	99.014863 
1597.000000	99.014059 
1596.000000	99.007346 
1595.000000	99.003205 
1594.000000	99.008477 
1593.000000	99.018937 
1592.000000	99.025816 
1591.000000	99.027291 
1590.000000	99.026692 
1589.000000	99.023783 
1588.000000	99.016467 
1587.000000	99.008122 
1586.000000	99.004833 
1585.000000	99.006825 
1584.000000	99.011587 
1583.000000	99.020567 
1582.000000	99.033074 
1581.000000	99.041069 
1580.000000	99.038869 
1579.000000	99.031646 
1578.000000	99.027818 
1577.000000	99.027965 
1576.000000	99.027558 
1575.000000	99.032909 
1574.000000	99.047489 
1573.000000	99.059289 
1572.000000	99.059639 
1571.000000	99.052380 
1570.000000	99.048274 
1569.000000	99.047394 
1568.000000	99.044220 
1567.000000	99.039718 
1566.000000	99.037665 
1565.000000	99.038209 
1564.000000	99.044525 
1563.000000	99.057954 
1562.000000	99.078542 
1561.000000	99.097297 
1560.000000	99.106526 
1559.000000	99.097687 
1558.000000	99.079515 
1557.000000	99.073635 
1556.000000	99.074720 
1555.000000	99.079832 
1554.000000	99.078856 
1553.000000	99.069430 
1552.000000	99.054308 
1551.000000	99.040779 
1550.000000	99.032716 
1549.000000	99.031965 
1548.000000	99.038042 
1547.000000	99.051095 
1546.000000	99.068759 
1545.000000	99.084848 
1544.000000	99.093240 
1543.000000	99.092113 
1542.000000	99.085038 
1541.000000	99.075494 
1540.000000	99.055942 
1539.000000	99.038302 
1538.000000	99.045972 
1537.000000	99.069637 
1536.000000	99.089841 
1535.000000	99.097058 
1534.000000	99.094542 
1533.000000	99.092184 
1532.000000	99.092472 
1531.000000	99.087545 
1530.000000	99.076902 
1529.000000	99.069105 
1528.000000	99.069554 
1527.000000	99.074526 
1526.000000	99.076624 
1525.000000	99.075694 
1524.000000	99.077958 
1523.000000	99.087084 
1522.000000	99.100246 
1521.000000	99.109551 
1520.000000	99.110543 
1519.000000	99.104704 
1518.000000	99.095134 
1517.000000	99.089077 
1516.000000	99.091986 
1515.000000	99.098216 
1514.000000	99.097285 
1513.000000	99.087564 
1512.000000	99.077297 
1511.000000	99.071533 
1510.000000	99.068035 
1509.000000	99.064140 
1508.000000	99.067303 
1507.000000	99.074720 
1506.000000	99.075072 
1505.000000	99.074711 
1504.000000	99.075499 
1503.000000	99.073456 
1502.000000	99.068240 
1501.000000	99.065803 
1500.000000	99.071956 
1499.000000	99.085990 
1498.000000	99.098871 
1497.000000	99.106515 
1496.000000	99.110581 
1495.000000	99.110271 
1494.000000	99.105643 
1493.000000	99.100024 
1492.000000	99.095937 
1491.000000	99.093634 
1490.000000	99.094467 
1489.000000	99.103078 
1488.000000	99.116087 
1487.000000	99.122462 
1486.000000	99.120988 
1485.000000	99.114149 
1484.000000	99.102573 
1483.000000	99.090570 
1482.000000	99.085818 
1481.000000	99.092554 
1480.000000	99.102354 
1479.000000	99.101692 
1478.000000	99.087426 
1477.000000	99.071066 
1476.000000	99.064437 
1475.000000	99.067009 
1474.000000	99.072036 
1473.000000	99.073723 
1472.000000	99.068391 
1471.000000	99.056019 
1470.000000	99.043518 
1469.000000	99.040272 
1468.000000	99.048256 
1467.000000	99.058379 
1466.000000	99.060058 
1465.000000	99.052904 
1464.000000	99.045689 
1463.000000	99.041210 
1462.000000	99.034621 
1461.000000	99.024719 
1460.000000	99.016989 
1459.000000	99.018214 
1458.000000	99.024805 
1457.000000	99.025433 
1456.000000	99.021882 
1455.000000	99.022120 
1454.000000	99.025082 
1453.000000	99.031846 
1452.000000	99.042879 
1451.000000	99.053608 
1450.000000	99.057609 
1449.000000	99.057502 
1448.000000	99.060185 
1447.000000	99.065394 
1446.000000	99.067269 
1445.000000	99.065210 
1444.000000	99.064830 
1443.000000	99.066729 
1442.000000	99.065243 
1441.000000	99.057851 
1440.000000	99.050212 
1439.000000	99.047494 
1438.000000	99.046358 
1437.000000	99.042533 
1436.000000	99.039794 
1435.000000	99.041221 
1434.000000	99.043504 
1433.000000	99.045348 
1432.000000	99.046552 
1431.000000	99.045803 
1430.000000	99.041663 
1429.000000	99.038256 
1428.000000	99.041119 
1427.000000	99.047775 
1426.000000	99.049547 
1425.000000	99.041638 
1424.000000	99.033572 
1423.000000	99.035926 
1422.000000	99.045386 
1421.000000	99.054056 
1420.000000	99.062379 
1419.000000	99.072127 
1418.000000	99.075873 
1417.000000	99.071533 
1416.000000	99.067199 
1415.000000	99.066837 
1414.000000	99.065632 
1413.000000	99.060469 
1412.000000	99.057360 
1411.000000	99.062686 
1410.000000	99.071660 
1409.000000	99.076789 
1408.000000	99.077508 
1407.000000	99.077199 
1406.000000	99.077804 
1405.000000	99.080246 
1404.000000	99.088159 
1403.000000	99.100264 
1402.000000	99.107490 
1401.000000	99.103088 
1400.000000	99.089463 
1399.000000	99.075990 
1398.000000	99.069930 
1397.000000	99.074476 
1396.000000	99.090750 
1395.000000	99.113141 
1394.000000	99.126349 
1393.000000	99.121577 
1392.000000	99.108935 
1391.000000	99.101446 
1390.000000	99.100693 
1389.000000	99.100043 
1388.000000	99.094896 
1387.000000	99.088247 
1386.000000	99.085738 
1385.000000	99.088218 
1384.000000	99.092238 
1383.000000	99.093434 
1382.000000	99.090379 
1381.000000	99.087641 
1380.000000	99.091076 
1379.000000	99.100886 
1378.000000	99.110125 
1377.000000	99.111512 
1376.000000	99.104849 
1375.000000	99.097138 
1374.000000	99.094364 
1373.000000	99.095011 
1372.000000	99.093958 
1371.000000	99.089945 
1370.000000	99.086051 
1369.000000	99.084959 
1368.000000	99.088695 
1367.000000	99.096596 
1366.000000	99.104090 
1365.000000	99.107232 
1364.000000	99.107114 
1363.000000	99.108320 
1362.000000	99.112120 
1361.000000	99.114090 
1360.000000	99.111568 
1359.000000	99.108497 
1358.000000	99.109516 
1357.000000	99.113303 
1356.000000	99.114915 
1355.000000	99.112519 
1354.000000	99.108803 
1353.000000	99.106962 
1352.000000	99.105951 
1351.000000	99.102937 
1350.000000	99.098355 
1349.000000	99.094118 
1348.000000	99.092607 
1347.000000	99.095674 
1346.000000	99.102970 
1345.000000	99.110908 
1344.000000	99.115287 
1343.000000	99.114648 
1342.000000	99.110499 
1341.000000	99.105415 
1340.000000	99.102644 
1339.000000	99.104967 
1338.000000	99.110890 
1337.000000	99.115243 
1336.000000	99.115192 
1335.000000	99.112960 
1334.000000	99.112473 
1333.000000	99.114905 
1332.000000	99.117876 
1331.000000	99.118084 
1330.000000	99.113627 
1329.000000	99.105553 
1328.000000	99.098604 
1327.000000	99.098150 
1326.000000	99.103327 
1325.000000	99.105896 
1324.000000	99.101682 
1323.000000	99.098095 
1322.000000	99.104935 
1321.000000	99.120655 
1320.000000	99.133877 
1319.000000	99.137559 
1318.000000	99.135872 
1317.000000	99.135666 
1316.000000	99.136542 
1315.000000	99.132933 
1314.000000	99.122698 
1313.000000	99.110536 
1312.000000	99.103134 
1311.000000	99.103156 
1310.000000	99.108391 
1309.000000	99.115084 
1308.000000	99.120354 
1307.000000	99.122455 
1306.000000	99.120554 
1305.000000	99.114959 
1304.000000	99.108698 
1303.000000	99.106675 
1302.000000	99.112339 
1301.000000	99.124757 
1300.000000	99.138798 
1299.000000	99.147764 
1298.000000	99.147232 
1297.000000	99.138132 
1296.000000	99.126211 
1295.000000	99.117683 
1294.000000	99.114612 
1293.000000	99.114862 
1292.000000	99.115591 
1291.000000	99.115283 
1290.000000	99.113029 
1289.000000	99.107843 
1288.000000	99.099635 
1287.000000	99.090392 
1286.000000	99.083832 
1285.000000	99.083386 
1284.000000	99.089133 
1283.000000	99.095883 
1282.000000	99.096555 
1281.000000	99.089508 
1280.000000	99.081284 
1279.000000	99.079916 
1278.000000	99.086029 
1277.000000	99.093019 
1276.000000	99.095138 
1275.000000	99.092738 
1274.000000	99.089640 
1273.000000	99.088554 
1272.000000	99.089742 
1271.000000	99.091135 
1270.000000	99.088651 
1269.000000	99.079307 
1268.000000	99.065811 
1267.000000	99.055407 
1266.000000	99.051921 
1265.000000	99.051283 
1264.000000	99.046673 
1263.000000	99.035843 
1262.000000	99.021752 
1261.000000	99.008428 
1260.000000	98.999183 
1259.000000	98.996865 
1258.000000	99.001065 
1257.000000	99.005307 
1256.000000	99.000668 
1255.000000	98.984475 
1254.000000	98.964296 
1253.000000	98.951580 
1252.000000	98.951578 
1251.000000	98.960306 
1250.000000	98.970004 
1249.000000	98.975236 
1248.000000	98.973628 
1247.000000	98.964239 
1246.000000	98.948949 
1245.000000	98.934726 
1244.000000	98.929556 
1243.000000	98.933727 
1242.000000	98.938386 
1241.000000	98.935756 
1240.000000	98.928029 
1239.000000	98.922561 
1238.000000	98.920452 
1237.000000	98.914870 
1236.000000	98.900789 
1235.000000	98.881866 
1234.000000	98.865607 
1233.000000	98.854539 
1232.000000	98.844979 
1231.000000	98.833700 
1230.000000	98.823418 
1229.000000	98.820246 
1228.000000	98.825573 
1227.000000	98.832223 
1226.000000	98.831192 
1225.000000	98.821867 
1224.000000	98.812241 
1223.000000	98.808403 
1222.000000	98.807861 
1221.000000	98.805381 
1220.000000	98.801176 
1219.000000	98.799182 
1218.000000	98.799994 
1217.000000	98.800646 
1216.000000	98.800346 
1215.000000	98.801794 
1214.000000	98.806635 
1213.000000	98.812963 
1212.000000	98.817422 
1211.000000	98.817041 
1210.000000	98.809787 
1209.000000	98.796278 
1208.000000	98.780657 
1207.000000	98.767442 
1206.000000	98.758186 
1205.000000	98.752972 
1204.000000	98.752934 
1203.000000	98.757713 
1202.000000	98.762133 
1201.000000	98.760170 
1200.000000	98.752424 
1199.000000	98.746043 
1198.000000	98.746637 
1197.000000	98.753248 
1196.000000	98.761315 
1195.000000	98.767118 
1194.000000	98.768493 
1193.000000	98.764166 
1192.000000	98.754787 
1191.000000	98.744269 
1190.000000	98.738985 
1189.000000	98.744394 
1188.000000	98.760527 
1187.000000	98.780122 
1186.000000	98.793586 
1185.000000	98.797408 
1184.000000	98.795764 
1183.000000	98.793208 
1182.000000	98.789428 
1181.000000	98.783139 
1180.000000	98.777139 
1179.000000	98.775233 
1178.000000	98.775854 
1177.000000	98.772617 
1176.000000	98.760830 
1175.000000	98.741921 
1174.000000	98.723387 
1173.000000	98.715486 
1172.000000	98.724404 
1171.000000	98.745192 
1170.000000	98.764071 
1169.000000	98.771294 
1168.000000	98.769526 
1167.000000	98.767404 
1166.000000	98.769192 
1165.000000	98.774435 
1164.000000	98.782555 
1163.000000	98.791451 
1162.000000	98.795334 
1161.000000	98.790794 
1160.000000	98.782466 
1159.000000	98.776178 
1158.000000	98.769027 
1157.000000	98.753778 
1156.000000	98.731503 
1155.000000	98.712006 
1154.000000	98.702158 
1153.000000	98.700978 
1152.000000	98.705631 
1151.000000	98.714213 
1150.000000	98.722350 
1149.000000	98.725229 
1148.000000	98.724551 
1147.000000	98.726033 
1146.000000	98.728015 
1145.000000	98.720048 
1144.000000	98.696641 
1143.000000	98.667027 
1142.000000	98.647197 
1141.000000	98.645175 
1140.000000	98.655653 
1139.000000	98.664990 
1138.000000	98.660746 
1137.000000	98.641482 
1136.000000	98.618955 
1135.000000	98.606841 
1134.000000	98.606775 
1133.000000	98.609641 
1132.000000	98.608903 
1131.000000	98.604804 
1130.000000	98.595269 
1129.000000	98.572649 
1128.000000	98.534600 
1127.000000	98.491570 
1126.000000	98.457565 
1125.000000	98.436978 
1124.000000	98.424081 
1123.000000	98.411285 
1122.000000	98.394509 
1121.000000	98.374627 
1120.000000	98.357135 
1119.000000	98.347088 
1118.000000	98.341989 
1117.000000	98.333683 
1116.000000	98.319124 
1115.000000	98.304165 
1114.000000	98.293942 
1113.000000	98.284576 
1112.000000	98.268263 
1111.000000	98.242670 
1110.000000	98.211444 
1109.000000	98.178801 
1108.000000	98.147155 
1107.000000	98.116863 
1106.000000	98.085831 
1105.000000	98.051607 
1104.000000	98.014626 
1103.000000	97.976733 
1102.000000	97.936463 
1101.000000	97.892213 
1100.000000	97.850145 
1099.000000	97.820851 
1098.000000	97.807296 
1097.000000	97.799273 
1096.000000	97.784264 
1095.000000	97.758064 
1094.000000	97.723233 
1093.000000	97.683511 
1092.000000	97.643804 
1091.000000	97.609984 
1090.000000	97.583275 
1089.000000	97.557755 
1088.000000	97.526660 
1087.000000	97.488785 
1086.000000	97.447913 
1085.000000	97.410246 
1084.000000	97.383027 
1083.000000	97.369332 
1082.000000	97.361607 
1081.000000	97.346022 
1080.000000	97.315905 
1079.000000	97.276123 
1078.000000	97.233374 
1077.000000	97.189877 
1076.000000	97.150119 
1075.000000	97.125370 
1074.000000	97.123613 
1073.000000	97.138420 
1072.000000	97.153368 
1071.000000	97.155932 
1070.000000	97.145125 
1069.000000	97.128518 
1068.000000	97.114180 
1067.000000	97.103437 
1066.000000	97.090269 
1065.000000	97.070049 
1064.000000	97.048020 
1063.000000	97.034162 
1062.000000	97.029102 
1061.000000	97.020823 
1060.000000	96.997858 
1059.000000	96.961775 
1058.000000	96.924657 
1057.000000	96.897236 
1056.000000	96.880712 
1055.000000	96.866949 
1054.000000	96.845699 
1053.000000	96.814417 
1052.000000	96.780682 
1051.000000	96.752634 
1050.000000	96.729773 
1049.000000	96.706704 
1048.000000	96.680073 
1047.000000	96.645896 
1046.000000	96.598464 
1045.000000	96.541440 
1044.000000	96.492541 
1043.000000	96.464628 
1042.000000	96.446175 
1041.000000	96.414354 
1040.000000	96.365326 
1039.000000	96.316277 
1038.000000	96.278062 
1037.000000	96.243675 
1036.000000	96.207176 
1035.000000	96.174954 
1034.000000	96.149056 
1033.000000	96.115165 
1032.000000	96.059371 
1031.000000	95.986304 
1030.000000	95.910123 
1029.000000	95.837465 
1028.000000	95.770107 
1027.000000	95.713982 
1026.000000	95.671592 
1025.000000	95.632335 
1024.000000	95.584027 
1023.000000	95.530249 
1022.000000	95.484469 
1021.000000	95.449954 
1020.000000	95.416894 
1019.000000	95.377750 
1018.000000	95.334850 
1017.000000	95.293080 
1016.000000	95.254911 
1015.000000	95.223614 
1014.000000	95.202073 
1013.000000	95.185517 
1012.000000	95.162433 
1011.000000	95.126719 
1010.000000	95.084587 
1009.000000	95.045322 
1008.000000	95.007429 
1007.000000	94.957451 
1006.000000	94.882804 
1005.000000	94.785071 
1004.000000	94.682174 
1003.000000	94.599950 
1002.000000	94.560193 
1001.000000	94.570243 
1000.000000	94.615871 
999.000000	 94.662769 
998.000000	 94.674240 
997.000000	 94.636480 
996.000000	 94.565590 
995.000000	 94.487371 
994.000000	 94.414528 
993.000000	 94.346526 
992.000000	 94.283453 
991.000000	 94.229139 
990.000000	 94.182958 
989.000000	 94.138536 
988.000000	 94.090433 
987.000000	 94.034932 
986.000000	 93.967169 
985.000000	 93.887044 
984.000000	 93.805549 
983.000000	 93.733953 
982.000000	 93.668045 
981.000000	 93.595801 
980.000000	 93.520051 
979.000000	 93.457612 
978.000000	 93.412126 
977.000000	 93.363342 
976.000000	 93.291185 
975.000000	 93.198130 
974.000000	 93.099314 
973.000000	 93.002260 
972.000000	 92.907552 
971.000000	 92.820369 
970.000000	 92.747994 
969.000000	 92.689341 
968.000000	 92.636612 
967.000000	 92.585264 
966.000000	 92.536313 
965.000000	 92.492413 
964.000000	 92.457146 
963.000000	 92.433833 
962.000000	 92.419283 
961.000000	 92.402733 
960.000000	 92.376725 
959.000000	 92.346000 
958.000000	 92.321252 
957.000000	 92.307318 
956.000000	 92.301621 
955.000000	 92.300556 
954.000000	 92.303083 
953.000000	 92.310779 
952.000000	 92.327259 
951.000000	 92.354472 
950.000000	 92.387352 
949.000000	 92.415864 
948.000000	 92.434210 
947.000000	 92.443963 
946.000000	 92.446851 
945.000000	 92.439446 
944.000000	 92.416699 
943.000000	 92.375669 
942.000000	 92.314883 
941.000000	 92.237236 
940.000000	 92.156703 
939.000000	 92.094369 
938.000000	 92.060817 
937.000000	 92.046036 
936.000000	 92.030802 
935.000000	 92.003466 
934.000000	 91.962332 
933.000000	 91.908886 
932.000000	 91.846959 
931.000000	 91.785925 
930.000000	 91.736564 
929.000000	 91.701313 
928.000000	 91.670742 
927.000000	 91.630306 
926.000000	 91.571232 
925.000000	 91.497210 
924.000000	 91.420859 
923.000000	 91.352204 
922.000000	 91.291842 
921.000000	 91.237503 
920.000000	 91.193068 
919.000000	 91.163802 
918.000000	 91.144631 
917.000000	 91.122422 
916.000000	 91.091143 
915.000000	 91.057413 
914.000000	 91.029795 
913.000000	 91.009442 
912.000000	 90.992145 
911.000000	 90.971829 
910.000000	 90.940837 
909.000000	 90.895827 
908.000000	 90.846696 
907.000000	 90.811548 
906.000000	 90.797989 
905.000000	 90.794801 
904.000000	 90.784841 
903.000000	 90.760593 
902.000000	 90.725456 
901.000000	 90.687141 
900.000000	 90.654053 
899.000000	 90.632801 
898.000000	 90.624044 
897.000000	 90.621126 
896.000000	 90.613097 
895.000000	 90.587679 
894.000000	 90.536415 
893.000000	 90.463957 
892.000000	 90.389354 
891.000000	 90.329827 
890.000000	 90.284559 
889.000000	 90.242112 
888.000000	 90.200146 
887.000000	 90.166133 
886.000000	 90.140619 
885.000000	 90.114533 
884.000000	 90.085560 
883.000000	 90.063089 
882.000000	 90.051275 
881.000000	 90.038896 
880.000000	 90.012855 
879.000000	 89.971964 
878.000000	 89.920399 
877.000000	 89.856934 
876.000000	 89.780432 
875.000000	 89.701032 
874.000000	 89.636705 
873.000000	 89.597323 
872.000000	 89.573143 
871.000000	 89.538490 
870.000000	 89.471571 
869.000000	 89.376203 
868.000000	 89.279054 
867.000000	 89.198531 
866.000000	 89.122651 
865.000000	 89.029019 
864.000000	 88.921024 
863.000000	 88.826877 
862.000000	 88.761995 
861.000000	 88.709450 
860.000000	 88.643960 
859.000000	 88.562313 
858.000000	 88.482082 
857.000000	 88.418550 
856.000000	 88.370195 
855.000000	 88.322639 
854.000000	 88.263665 
853.000000	 88.197450 
852.000000	 88.142040 
851.000000	 88.107422 
850.000000	 88.080908 
849.000000	 88.043341 
848.000000	 87.994436 
847.000000	 87.949511 
846.000000	 87.915586 
845.000000	 87.886546 
844.000000	 87.860624 
843.000000	 87.846053 
842.000000	 87.846597 
841.000000	 87.853784 
840.000000	 87.854505 
839.000000	 87.836005 
838.000000	 87.786943 
837.000000	 87.707613 
836.000000	 87.616210 
835.000000	 87.529511 
834.000000	 87.440360 
833.000000	 87.332155 
832.000000	 87.212143 
831.000000	 87.105493 
830.000000	 87.013189 
829.000000	 86.904073 
828.000000	 86.761852 
827.000000	 86.615515 
826.000000	 86.503807 
825.000000	 86.428790 
824.000000	 86.366408 
823.000000	 86.305775 
822.000000	 86.254184 
821.000000	 86.215589 
820.000000	 86.184731 
819.000000	 86.155690 
818.000000	 86.124101 
817.000000	 86.087332 
816.000000	 86.049715 
815.000000	 86.021190 
814.000000	 86.006286 
813.000000	 86.000939 
812.000000	 86.001242 
811.000000	 86.004351 
810.000000	 85.998737 
809.000000	 85.967813 
808.000000	 85.910675 
807.000000	 85.850042 
806.000000	 85.813057 
805.000000	 85.809027 
804.000000	 85.826291 
803.000000	 85.841636 
802.000000	 85.832908 
801.000000	 85.794910 
800.000000	 85.746811 
799.000000	 85.715961 
798.000000	 85.712222 
797.000000	 85.723975 
796.000000	 85.735462 
795.000000	 85.737251 
794.000000	 85.723901 
793.000000	 85.695793 
792.000000	 85.663084 
791.000000	 85.636090 
790.000000	 85.613668 
789.000000	 85.592766 
788.000000	 85.583687 
787.000000	 85.598326 
786.000000	 85.626190 
785.000000	 85.641648 
784.000000	 85.635599 
783.000000	 85.621951 
782.000000	 85.612211 
781.000000	 85.602842 
780.000000	 85.590847 
779.000000	 85.582649 
778.000000	 85.580717 
777.000000	 85.577021 
776.000000	 85.566320 
775.000000	 85.553317 
774.000000	 85.542262 
773.000000	 85.531588 
772.000000	 85.521844 
771.000000	 85.516458 
770.000000	 85.511955 
769.000000	 85.499458 
768.000000	 85.478496 
767.000000	 85.459469 
766.000000	 85.452679 
765.000000	 85.464136 
764.000000	 85.497475 
763.000000	 85.546436 
762.000000	 85.590334 
761.000000	 85.613018 
760.000000	 85.622118 
759.000000	 85.633904 
758.000000	 85.646998 
757.000000	 85.651813 
756.000000	 85.658068 
755.000000	 85.685312 
754.000000	 85.726697 
753.000000	 85.749453 
752.000000	 85.735730 
751.000000	 85.699186 
750.000000	 85.658296 
749.000000	 85.619334 
748.000000	 85.592866 
747.000000	 85.600847 
746.000000	 85.651373 
745.000000	 85.720159 
744.000000	 85.768227 
743.000000	 85.771240 
742.000000	 85.732371 
741.000000	 85.679129 
740.000000	 85.643977 
739.000000	 85.631255 
738.000000	 85.607804 
737.000000	 85.546259 
736.000000	 85.470766 
735.000000	 85.432100 
734.000000	 85.440107 
733.000000	 85.453796 
732.000000	 85.442949 
731.000000	 85.425198 
730.000000	 85.429353 
729.000000	 85.453021 
728.000000	 85.476347 
727.000000	 85.492288 
726.000000	 85.501941 
725.000000	 85.499602 
724.000000	 85.480732 
723.000000	 85.451096 
722.000000	 85.417672 
721.000000	 85.386347 
720.000000	 85.373862 
719.000000	 85.397081 
718.000000	 85.443329 
717.000000	 85.478931 
716.000000	 85.492370 
715.000000	 85.505057 
714.000000	 85.531534 
713.000000	 85.553477 
712.000000	 85.551115 
711.000000	 85.538076 
710.000000	 85.543064 
709.000000	 85.571421 
708.000000	 85.603769 
707.000000	 85.619684 
706.000000	 85.605435 
705.000000	 85.554779 
704.000000	 85.481172 
703.000000	 85.417114 
702.000000	 85.385015 
701.000000	 85.376131 
700.000000	 85.367429 
699.000000	 85.348492 
698.000000	 85.320009 
697.000000	 85.280375 
696.000000	 85.228908 
695.000000	 85.172881 
694.000000	 85.124273 
693.000000	 85.095620 
692.000000	 85.099361 
691.000000	 85.138184 
690.000000	 85.192082 
689.000000	 85.234438 
688.000000	 85.263967 
687.000000	 85.297798 
686.000000	 85.336042 
685.000000	 85.363425 
684.000000	 85.385116 
683.000000	 85.423866 
682.000000	 85.473870 
681.000000	 85.496667 
680.000000	 85.477039 
679.000000	 85.446814 
678.000000	 85.430284 
677.000000	 85.400557 
676.000000	 85.323987 
675.000000	 85.209984 
674.000000	 85.093013 
673.000000	 85.000373 
672.000000	 84.958817 
671.000000	 85.007563 
670.000000	 85.177242 
669.000000	 85.453897 
668.000000	 85.676356 
667.000000	 85.612930 
666.000000	 85.375118 
665.000000	 85.171949 
664.000000	 85.042534 
663.000000	 84.959909 
662.000000	 84.891074 
661.000000	 84.818587 
660.000000	 84.765630 
659.000000	 84.777079 
658.000000	 84.840133 
657.000000	 84.919924 
656.000000	 84.970213 
655.000000	 85.076653 
654.000000	 85.119777 
653.000000	 84.882314 
652.000000	 84.942043 
651.000000	 84.918048 
650.000000	 84.901964 

