PE IR                   SPECTRUM    ASCII       PEDS        1.60        
  -1
~SP.SP
18/03/14
13:56:06.00
18/03/14
13:56:06.00
pili

650.000000
4









SPECTRUM 100,CPU32 MAIN 00.02.8200 12-DECEMBER-2006 10:00:00
MIR TGS
MIR
OPTKBR
78890
0.200000

4.000000
STRONG
RATIO
SPECTRUM
MAGNITUDE
UNIVERSAL ATR
DOUBLE

COMBINED


0


#HDR
-1
-1
#GR
CM-1
%T
0.00002384185791015625
0.0
4000.000000
-1.000000
3351
8
99.599422
89.144473
#DATA
4000.000000	99.587245 
3999.000000	99.584350 
3998.000000	99.583769 
3997.000000	99.584790 
3996.000000	99.586504 
3995.000000	99.588118 
3994.000000	99.589333 
3993.000000	99.589077 
3992.000000	99.585385 
3991.000000	99.576994 
3990.000000	99.565660 
3989.000000	99.556269 
3988.000000	99.553529 
3987.000000	99.558065 
3986.000000	99.565796 
3985.000000	99.571067 
3984.000000	99.570794 
3983.000000	99.566315 
3982.000000	99.561984 
3981.000000	99.561758 
3980.000000	99.566112 
3979.000000	99.572051 
3978.000000	99.576124 
3977.000000	99.577021 
3976.000000	99.575101 
3975.000000	99.570198 
3974.000000	99.561206 
3973.000000	99.548033 
3972.000000	99.533045 
3971.000000	99.520339 
3970.000000	99.513653 
3969.000000	99.514714 
3968.000000	99.522721 
3967.000000	99.534576 
3966.000000	99.546326 
3965.000000	99.555326 
3964.000000	99.561464 
3963.000000	99.566790 
3962.000000	99.573903 
3961.000000	99.583633 
3960.000000	99.593352 
3959.000000	99.598312 
3958.000000	99.595571 
3957.000000	99.587228 
3956.000000	99.579606 
3955.000000	99.578186 
3954.000000	99.583676 
3953.000000	99.592141 
3952.000000	99.598370 
3951.000000	99.599422 
3950.000000	99.595606 
3949.000000	99.589583 
3948.000000	99.583866 
3947.000000	99.578912 
3946.000000	99.573491 
3945.000000	99.566477 
3944.000000	99.558127 
3943.000000	99.549848 
3942.000000	99.543871 
3941.000000	99.542122 
3940.000000	99.544386 
3939.000000	99.548407 
3938.000000	99.552073 
3937.000000	99.554589 
3936.000000	99.555447 
3935.000000	99.552670 
3934.000000	99.545122 
3933.000000	99.535944 
3932.000000	99.531304 
3931.000000	99.533319 
3930.000000	99.537152 
3929.000000	99.538271 
3928.000000	99.539030 
3927.000000	99.545358 
3926.000000	99.558349 
3925.000000	99.570861 
3924.000000	99.574745 
3923.000000	99.569383 
3922.000000	99.560669 
3921.000000	99.555142 
3920.000000	99.555327 
3919.000000	99.558542 
3918.000000	99.559101 
3917.000000	99.553531 
3916.000000	99.544603 
3915.000000	99.538714 
3914.000000	99.539280 
3913.000000	99.544260 
3912.000000	99.549127 
3911.000000	99.551322 
3910.000000	99.550857 
3909.000000	99.548819 
3908.000000	99.547359 
3907.000000	99.548577 
3906.000000	99.552677 
3905.000000	99.555649 
3904.000000	99.552934 
3903.000000	99.546667 
3902.000000	99.543667 
3901.000000	99.546030 
3900.000000	99.549179 
3899.000000	99.548499 
3898.000000	99.545609 
3897.000000	99.545587 
3896.000000	99.550787 
3895.000000	99.560920 
3894.000000	99.574247 
3893.000000	99.585324 
3892.000000	99.584618 
3891.000000	99.567567 
3890.000000	99.543521 
3889.000000	99.526470 
3888.000000	99.522671 
3887.000000	99.526958 
3886.000000	99.527961 
3885.000000	99.520552 
3884.000000	99.511265 
3883.000000	99.508577 
3882.000000	99.514439 
3881.000000	99.524384 
3880.000000	99.532660 
3879.000000	99.536539 
3878.000000	99.537997 
3877.000000	99.541302 
3876.000000	99.549353 
3875.000000	99.558728 
3874.000000	99.562382 
3873.000000	99.559689 
3872.000000	99.557860 
3871.000000	99.560225 
3870.000000	99.560882 
3869.000000	99.557266 
3868.000000	99.553915 
3867.000000	99.551943 
3866.000000	99.547844 
3865.000000	99.540899 
3864.000000	99.535485 
3863.000000	99.534974 
3862.000000	99.535633 
3861.000000	99.533044 
3860.000000	99.528231 
3859.000000	99.523663 
3858.000000	99.518143 
3857.000000	99.509475 
3856.000000	99.500697 
3855.000000	99.499081 
3854.000000	99.495721 
3853.000000	99.481869 
3852.000000	99.475828 
3851.000000	99.492338 
3850.000000	99.520797 
3849.000000	99.547029 
3848.000000	99.563638 
3847.000000	99.569895 
3846.000000	99.566970 
3845.000000	99.557028 
3844.000000	99.545745 
3843.000000	99.541300 
3842.000000	99.546490 
3841.000000	99.554925 
3840.000000	99.556006 
3839.000000	99.545223 
3838.000000	99.530756 
3837.000000	99.525611 
3836.000000	99.535168 
3835.000000	99.554575 
3834.000000	99.574332 
3833.000000	99.587037 
3832.000000	99.590234 
3831.000000	99.586740 
3830.000000	99.582455 
3829.000000	99.581476 
3828.000000	99.582934 
3827.000000	99.582760 
3826.000000	99.577891 
3825.000000	99.569759 
3824.000000	99.563015 
3823.000000	99.561326 
3822.000000	99.559838 
3821.000000	99.549961 
3820.000000	99.537622 
3819.000000	99.535899 
3818.000000	99.545193 
3817.000000	99.553775 
3816.000000	99.552027 
3815.000000	99.544970 
3814.000000	99.542813 
3813.000000	99.544985 
3812.000000	99.543436 
3811.000000	99.535713 
3810.000000	99.528361 
3809.000000	99.529248 
3808.000000	99.535888 
3807.000000	99.537501 
3806.000000	99.530547 
3805.000000	99.523892 
3804.000000	99.527546 
3803.000000	99.544991 
3802.000000	99.568053 
3801.000000	99.584224 
3800.000000	99.591117 
3799.000000	99.590201 
3798.000000	99.580206 
3797.000000	99.564706 
3796.000000	99.554038 
3795.000000	99.555611 
3794.000000	99.564916 
3793.000000	99.570857 
3792.000000	99.567524 
3791.000000	99.558345 
3790.000000	99.549887 
3789.000000	99.545722 
3788.000000	99.547118 
3787.000000	99.554720 
3786.000000	99.566184 
3785.000000	99.574418 
3784.000000	99.572602 
3783.000000	99.561007 
3782.000000	99.546422 
3781.000000	99.535712 
3780.000000	99.530672 
3779.000000	99.530694 
3778.000000	99.536528 
3777.000000	99.547428 
3776.000000	99.556999 
3775.000000	99.556814 
3774.000000	99.544653 
3773.000000	99.528211 
3772.000000	99.519495 
3771.000000	99.523551 
3770.000000	99.533039 
3769.000000	99.537095 
3768.000000	99.532698 
3767.000000	99.523388 
3766.000000	99.514372 
3765.000000	99.510209 
3764.000000	99.513597 
3763.000000	99.524214 
3762.000000	99.537710 
3761.000000	99.547633 
3760.000000	99.549102 
3759.000000	99.543047 
3758.000000	99.534661 
3757.000000	99.527814 
3756.000000	99.522683 
3755.000000	99.516783 
3754.000000	99.507519 
3753.000000	99.495655 
3752.000000	99.485947 
3751.000000	99.481004 
3750.000000	99.479183 
3749.000000	99.477430 
3748.000000	99.474614 
3747.000000	99.471714 
3746.000000	99.469411 
3745.000000	99.461974 
3744.000000	99.449530 
3743.000000	99.443381 
3742.000000	99.444057 
3741.000000	99.439053 
3740.000000	99.423433 
3739.000000	99.407613 
3738.000000	99.408403 
3737.000000	99.430124 
3736.000000	99.460015 
3735.000000	99.483181 
3734.000000	99.493885 
3733.000000	99.491441 
3732.000000	99.477661 
3731.000000	99.459365 
3730.000000	99.444779 
3729.000000	99.436867 
3728.000000	99.433526 
3727.000000	99.430955 
3726.000000	99.426839 
3725.000000	99.421598 
3724.000000	99.417558 
3723.000000	99.418716 
3722.000000	99.428644 
3721.000000	99.447841 
3720.000000	99.470424 
3719.000000	99.486912 
3718.000000	99.492020 
3717.000000	99.487288 
3716.000000	99.478796 
3715.000000	99.471953 
3714.000000	99.469968 
3713.000000	99.474730 
3712.000000	99.482556 
3711.000000	99.486021 
3710.000000	99.481578 
3709.000000	99.472898 
3708.000000	99.467642 
3707.000000	99.469805 
3706.000000	99.477220 
3705.000000	99.485079 
3704.000000	99.491145 
3703.000000	99.497675 
3702.000000	99.506970 
3701.000000	99.518712 
3700.000000	99.530561 
3699.000000	99.538503 
3698.000000	99.538793 
3697.000000	99.530519 
3696.000000	99.517297 
3695.000000	99.505137 
3694.000000	99.498129 
3693.000000	99.498214 
3692.000000	99.507115 
3691.000000	99.524827 
3690.000000	99.542540 
3689.000000	99.547315 
3688.000000	99.539605 
3687.000000	99.531818 
3686.000000	99.531355 
3685.000000	99.535182 
3684.000000	99.535488 
3683.000000	99.528278 
3682.000000	99.517121 
3681.000000	99.507572 
3680.000000	99.501191 
3679.000000	99.496071 
3678.000000	99.490656 
3677.000000	99.484277 
3676.000000	99.471342 
3675.000000	99.454702 
3674.000000	99.451030 
3673.000000	99.467793 
3672.000000	99.495715 
3671.000000	99.522385 
3670.000000	99.537711 
3669.000000	99.541815 
3668.000000	99.542039 
3667.000000	99.540753 
3666.000000	99.537890 
3665.000000	99.536445 
3664.000000	99.538987 
3663.000000	99.542303 
3662.000000	99.538337 
3661.000000	99.521749 
3660.000000	99.497313 
3659.000000	99.478016 
3658.000000	99.476009 
3657.000000	99.491061 
3656.000000	99.510083 
3655.000000	99.520192 
3654.000000	99.515284 
3653.000000	99.494529 
3652.000000	99.462604 
3651.000000	99.430503 
3650.000000	99.407788 
3649.000000	99.398378 
3648.000000	99.404483 
3647.000000	99.425426 
3646.000000	99.454502 
3645.000000	99.482556 
3644.000000	99.502267 
3643.000000	99.510839 
3642.000000	99.511249 
3641.000000	99.509311 
3640.000000	99.509990 
3639.000000	99.514281 
3638.000000	99.520162 
3637.000000	99.524228 
3636.000000	99.521860 
3635.000000	99.509453 
3634.000000	99.488821 
3633.000000	99.468801 
3632.000000	99.458735 
3631.000000	99.460005 
3630.000000	99.461920 
3629.000000	99.450701 
3628.000000	99.433722 
3627.000000	99.430854 
3626.000000	99.443878 
3625.000000	99.460400 
3624.000000	99.473200 
3623.000000	99.485954 
3622.000000	99.505725 
3621.000000	99.530637 
3620.000000	99.544812 
3619.000000	99.532718 
3618.000000	99.500100 
3617.000000	99.469036 
3616.000000	99.456799 
3615.000000	99.465386 
3614.000000	99.481590 
3613.000000	99.486867 
3612.000000	99.472082 
3611.000000	99.442696 
3610.000000	99.413228 
3609.000000	99.398558 
3608.000000	99.404454 
3607.000000	99.423598 
3606.000000	99.441623 
3605.000000	99.448029 
3604.000000	99.443042 
3603.000000	99.435914 
3602.000000	99.437143 
3601.000000	99.450400 
3600.000000	99.470023 
3599.000000	99.486147 
3598.000000	99.492002 
3597.000000	99.486804 
3596.000000	99.475264 
3595.000000	99.464586 
3594.000000	99.459740 
3593.000000	99.461291 
3592.000000	99.466272 
3591.000000	99.470829 
3590.000000	99.472929 
3589.000000	99.472499 
3588.000000	99.469574 
3587.000000	99.465427 
3586.000000	99.464231 
3585.000000	99.468696 
3584.000000	99.478537 
3583.000000	99.492649 
3582.000000	99.510767 
3581.000000	99.530347 
3580.000000	99.545138 
3579.000000	99.549498 
3578.000000	99.543715 
3577.000000	99.533881 
3576.000000	99.525549 
3575.000000	99.520079 
3574.000000	99.516074 
3573.000000	99.513045 
3572.000000	99.511660 
3571.000000	99.510801 
3570.000000	99.506403 
3569.000000	99.494529 
3568.000000	99.476694 
3567.000000	99.461547 
3566.000000	99.459262 
3565.000000	99.472068 
3564.000000	99.492481 
3563.000000	99.509981 
3562.000000	99.517523 
3561.000000	99.513781 
3560.000000	99.502594 
3559.000000	99.490514 
3558.000000	99.484167 
3557.000000	99.487688 
3556.000000	99.500433 
3555.000000	99.516034 
3554.000000	99.524911 
3553.000000	99.520491 
3552.000000	99.505541 
3551.000000	99.490078 
3550.000000	99.482095 
3549.000000	99.482562 
3548.000000	99.489452 
3547.000000	99.502132 
3546.000000	99.519431 
3545.000000	99.536132 
3544.000000	99.547039 
3543.000000	99.553692 
3542.000000	99.561943 
3541.000000	99.572188 
3540.000000	99.575427 
3539.000000	99.560951 
3538.000000	99.528005 
3537.000000	99.488237 
3536.000000	99.457789 
3535.000000	99.447108 
3534.000000	99.457477 
3533.000000	99.483320 
3532.000000	99.515694 
3531.000000	99.544702 
3530.000000	99.561164 
3529.000000	99.558951 
3528.000000	99.538051 
3527.000000	99.506279 
3526.000000	99.476214 
3525.000000	99.458423 
3524.000000	99.456155 
3523.000000	99.465966 
3522.000000	99.482884 
3521.000000	99.503457 
3520.000000	99.524287 
3519.000000	99.540194 
3518.000000	99.547034 
3517.000000	99.545457 
3516.000000	99.539627 
3515.000000	99.531947 
3514.000000	99.521197 
3513.000000	99.507088 
3512.000000	99.494497 
3511.000000	99.490682 
3510.000000	99.497841 
3509.000000	99.510156 
3508.000000	99.518609 
3507.000000	99.517260 
3506.000000	99.505566 
3505.000000	99.487654 
3504.000000	99.471254 
3503.000000	99.464159 
3502.000000	99.468866 
3501.000000	99.481139 
3500.000000	99.494849 
3499.000000	99.507058 
3498.000000	99.516889 
3497.000000	99.521722 
3496.000000	99.518295 
3495.000000	99.508860 
3494.000000	99.502853 
3493.000000	99.508753 
3492.000000	99.524324 
3491.000000	99.536938 
3490.000000	99.534601 
3489.000000	99.516753 
3488.000000	99.493931 
3487.000000	99.477932 
3486.000000	99.472980 
3485.000000	99.474907 
3484.000000	99.476105 
3483.000000	99.470786 
3482.000000	99.458781 
3481.000000	99.446882 
3480.000000	99.445421 
3479.000000	99.460604 
3478.000000	99.488752 
3477.000000	99.518389 
3476.000000	99.538008 
3475.000000	99.542396 
3474.000000	99.533308 
3473.000000	99.516688 
3472.000000	99.500246 
3471.000000	99.490978 
3470.000000	99.491442 
3469.000000	99.497879 
3468.000000	99.503253 
3467.000000	99.502787 
3466.000000	99.496970 
3465.000000	99.490188 
3464.000000	99.487634 
3463.000000	99.492158 
3462.000000	99.501684 
3461.000000	99.509831 
3460.000000	99.511185 
3459.000000	99.506791 
3458.000000	99.503292 
3457.000000	99.505746 
3456.000000	99.512910 
3455.000000	99.519588 
3454.000000	99.522328 
3453.000000	99.521649 
3452.000000	99.519627 
3451.000000	99.516923 
3450.000000	99.511812 
3449.000000	99.502218 
3448.000000	99.489421 
3447.000000	99.479656 
3446.000000	99.479740 
3445.000000	99.490270 
3444.000000	99.504768 
3443.000000	99.515688 
3442.000000	99.520019 
3441.000000	99.519167 
3440.000000	99.515885 
3439.000000	99.512567 
3438.000000	99.510324 
3437.000000	99.507516 
3436.000000	99.501038 
3435.000000	99.490804 
3434.000000	99.481494 
3433.000000	99.477527 
3432.000000	99.477219 
3431.000000	99.474967 
3430.000000	99.468616 
3429.000000	99.462069 
3428.000000	99.459994 
3427.000000	99.462212 
3426.000000	99.464959 
3425.000000	99.466456 
3424.000000	99.469350 
3423.000000	99.477019 
3422.000000	99.488511 
3421.000000	99.498722 
3420.000000	99.504196 
3419.000000	99.507010 
3418.000000	99.511111 
3417.000000	99.515903 
3416.000000	99.516277 
3415.000000	99.509699 
3414.000000	99.500917 
3413.000000	99.497300 
3412.000000	99.499981 
3411.000000	99.501809 
3410.000000	99.494804 
3409.000000	99.478946 
3408.000000	99.463114 
3407.000000	99.457662 
3406.000000	99.466371 
3405.000000	99.485053 
3404.000000	99.506319 
3403.000000	99.524109 
3402.000000	99.534363 
3401.000000	99.534527 
3400.000000	99.524895 
3399.000000	99.509881 
3398.000000	99.495655 
3397.000000	99.485857 
3396.000000	99.480268 
3395.000000	99.477234 
3394.000000	99.475934 
3393.000000	99.476495 
3392.000000	99.480001 
3391.000000	99.488633 
3390.000000	99.503370 
3389.000000	99.519947 
3388.000000	99.529246 
3387.000000	99.524710 
3386.000000	99.509916 
3385.000000	99.496496 
3384.000000	99.492921 
3383.000000	99.495997 
3382.000000	99.494906 
3381.000000	99.483470 
3380.000000	99.466779 
3379.000000	99.455175 
3378.000000	99.452848 
3377.000000	99.454840 
3376.000000	99.455297 
3375.000000	99.455738 
3374.000000	99.462610 
3373.000000	99.478207 
3372.000000	99.497191 
3371.000000	99.512523 
3370.000000	99.522039 
3369.000000	99.527585 
3368.000000	99.529720 
3367.000000	99.525984 
3366.000000	99.514486 
3365.000000	99.497588 
3364.000000	99.481028 
3363.000000	99.469507 
3362.000000	99.463540 
3361.000000	99.461141 
3360.000000	99.462286 
3359.000000	99.469722 
3358.000000	99.483601 
3357.000000	99.496755 
3356.000000	99.498744 
3355.000000	99.485687 
3354.000000	99.464066 
3353.000000	99.444202 
3352.000000	99.432325 
3351.000000	99.429385 
3350.000000	99.433981 
3349.000000	99.443624 
3348.000000	99.455049 
3347.000000	99.466271 
3346.000000	99.478104 
3345.000000	99.491681 
3344.000000	99.504927 
3343.000000	99.513101 
3342.000000	99.512724 
3341.000000	99.504599 
3340.000000	99.494295 
3339.000000	99.490269 
3338.000000	99.498473 
3337.000000	99.515566 
3336.000000	99.528668 
3335.000000	99.525369 
3334.000000	99.504464 
3333.000000	99.475408 
3332.000000	99.448819 
3331.000000	99.430066 
3330.000000	99.420593 
3329.000000	99.420530 
3328.000000	99.428161 
3327.000000	99.439543 
3326.000000	99.450987 
3325.000000	99.461030 
3324.000000	99.469278 
3323.000000	99.474845 
3322.000000	99.476915 
3321.000000	99.475733 
3320.000000	99.472111 
3319.000000	99.466731 
3318.000000	99.460344 
3317.000000	99.453676 
3316.000000	99.446870 
3315.000000	99.440221 
3314.000000	99.435679 
3313.000000	99.436034 
3312.000000	99.441799 
3311.000000	99.449995 
3310.000000	99.456509 
3309.000000	99.458420 
3308.000000	99.453721 
3307.000000	99.441368 
3306.000000	99.424182 
3305.000000	99.410833 
3304.000000	99.411439 
3303.000000	99.428631 
3302.000000	99.453222 
3301.000000	99.470465 
3300.000000	99.472116 
3299.000000	99.462387 
3298.000000	99.451769 
3297.000000	99.445947 
3296.000000	99.442412 
3295.000000	99.437595 
3294.000000	99.433606 
3293.000000	99.435151 
3292.000000	99.441768 
3291.000000	99.447083 
3290.000000	99.446259 
3289.000000	99.441079 
3288.000000	99.436532 
3287.000000	99.434950 
3286.000000	99.435210 
3285.000000	99.436033 
3284.000000	99.437809 
3283.000000	99.441628 
3282.000000	99.448007 
3281.000000	99.456521 
3280.000000	99.465948 
3279.000000	99.474894 
3278.000000	99.482729 
3277.000000	99.489324 
3276.000000	99.493339 
3275.000000	99.491780 
3274.000000	99.482687 
3273.000000	99.468465 
3272.000000	99.455739 
3271.000000	99.451011 
3270.000000	99.455593 
3269.000000	99.464347 
3268.000000	99.469943 
3267.000000	99.469420 
3266.000000	99.466458 
3265.000000	99.466544 
3264.000000	99.470379 
3263.000000	99.473685 
3262.000000	99.473178 
3261.000000	99.470220 
3260.000000	99.467778 
3259.000000	99.466031 
3258.000000	99.463002 
3257.000000	99.457966 
3256.000000	99.451976 
3255.000000	99.445690 
3254.000000	99.439267 
3253.000000	99.434571 
3252.000000	99.435343 
3251.000000	99.443845 
3250.000000	99.457607 
3249.000000	99.469980 
3248.000000	99.474048 
3247.000000	99.467144 
3246.000000	99.453125 
3245.000000	99.440188 
3244.000000	99.434829 
3243.000000	99.437146 
3242.000000	99.442389 
3241.000000	99.446767 
3240.000000	99.450439 
3239.000000	99.454603 
3238.000000	99.457376 
3237.000000	99.454435 
3236.000000	99.444283 
3235.000000	99.431985 
3234.000000	99.426555 
3233.000000	99.433445 
3232.000000	99.449042 
3231.000000	99.463331 
3230.000000	99.469022 
3229.000000	99.468095 
3228.000000	99.468457 
3227.000000	99.474271 
3226.000000	99.481282 
3225.000000	99.482369 
3224.000000	99.475806 
3223.000000	99.465971 
3222.000000	99.456642 
3221.000000	99.446663 
3220.000000	99.433546 
3219.000000	99.419419 
3218.000000	99.410912 
3217.000000	99.413232 
3216.000000	99.425890 
3215.000000	99.443982 
3214.000000	99.461801 
3213.000000	99.474667 
3212.000000	99.479354 
3211.000000	99.475263 
3210.000000	99.465443 
3209.000000	99.455247 
3208.000000	99.449140 
3207.000000	99.448459 
3206.000000	99.451438 
3205.000000	99.454759 
3204.000000	99.455638 
3203.000000	99.453554 
3202.000000	99.450408 
3201.000000	99.449116 
3200.000000	99.452174 
3199.000000	99.460650 
3198.000000	99.472658 
3197.000000	99.482379 
3196.000000	99.483260 
3195.000000	99.474653 
3194.000000	99.464299 
3193.000000	99.461619 
3192.000000	99.468400 
3191.000000	99.478018 
3190.000000	99.483672 
3189.000000	99.484882 
3188.000000	99.484840 
3187.000000	99.484173 
3186.000000	99.480004 
3185.000000	99.470733 
3184.000000	99.459664 
3183.000000	99.452935 
3182.000000	99.454277 
3181.000000	99.461808 
3180.000000	99.469708 
3179.000000	99.472937 
3178.000000	99.470329 
3177.000000	99.463471 
3176.000000	99.453999 
3175.000000	99.443347 
3174.000000	99.434402 
3173.000000	99.430929 
3172.000000	99.434239 
3171.000000	99.441513 
3170.000000	99.448550 
3169.000000	99.453868 
3168.000000	99.459494 
3167.000000	99.468292 
3166.000000	99.480908 
3165.000000	99.494578 
3164.000000	99.504210 
3163.000000	99.505472 
3162.000000	99.498575 
3161.000000	99.489489 
3160.000000	99.486175 
3159.000000	99.491797 
3158.000000	99.501001 
3157.000000	99.503831 
3156.000000	99.494526 
3155.000000	99.476472 
3154.000000	99.458260 
3153.000000	99.445938 
3152.000000	99.440402 
3151.000000	99.440764 
3150.000000	99.446468 
3149.000000	99.454979 
3148.000000	99.460614 
3147.000000	99.458558 
3146.000000	99.449273 
3145.000000	99.437679 
3144.000000	99.429380 
3143.000000	99.428551 
3142.000000	99.436595 
3141.000000	99.449625 
3140.000000	99.459075 
3139.000000	99.458906 
3138.000000	99.452407 
3137.000000	99.448828 
3136.000000	99.452913 
3135.000000	99.460370 
3134.000000	99.464018 
3133.000000	99.461714 
3132.000000	99.457656 
3131.000000	99.458353 
3130.000000	99.467807 
3129.000000	99.483644 
3128.000000	99.496804 
3127.000000	99.498212 
3126.000000	99.488000 
3125.000000	99.476410 
3124.000000	99.473744 
3123.000000	99.480472 
3122.000000	99.488234 
3121.000000	99.488960 
3120.000000	99.481648 
3119.000000	99.471596 
3118.000000	99.464817 
3117.000000	99.462937 
3116.000000	99.462893 
3115.000000	99.461769 
3114.000000	99.461140 
3113.000000	99.464725 
3112.000000	99.472226 
3111.000000	99.478552 
3110.000000	99.480010 
3109.000000	99.478312 
3108.000000	99.476801 
3107.000000	99.475442 
3106.000000	99.472035 
3105.000000	99.466887 
3104.000000	99.463393 
3103.000000	99.464212 
3102.000000	99.468672 
3101.000000	99.474011 
3100.000000	99.478180 
3099.000000	99.481494 
3098.000000	99.486259 
3097.000000	99.494339 
3096.000000	99.504138 
3095.000000	99.510275 
3094.000000	99.507553 
3093.000000	99.495820 
3092.000000	99.481043 
3091.000000	99.471690 
3090.000000	99.473079 
3089.000000	99.483377 
3088.000000	99.494320 
3087.000000	99.497188 
3086.000000	99.489665 
3085.000000	99.477246 
3084.000000	99.467925 
3083.000000	99.465747 
3082.000000	99.468853 
3081.000000	99.472214 
3080.000000	99.472064 
3079.000000	99.468916 
3078.000000	99.466839 
3077.000000	99.468795 
3076.000000	99.472815 
3075.000000	99.474421 
3074.000000	99.472901 
3073.000000	99.472800 
3072.000000	99.477829 
3071.000000	99.485404 
3070.000000	99.489301 
3069.000000	99.486683 
3068.000000	99.480642 
3067.000000	99.476256 
3066.000000	99.475861 
3065.000000	99.478161 
3064.000000	99.480504 
3063.000000	99.481647 
3062.000000	99.482755 
3061.000000	99.485310 
3060.000000	99.487690 
3059.000000	99.485280 
3058.000000	99.476036 
3057.000000	99.465365 
3056.000000	99.462638 
3055.000000	99.471501 
3054.000000	99.485279 
3053.000000	99.493606 
3052.000000	99.492911 
3051.000000	99.488954 
3050.000000	99.489017 
3049.000000	99.493279 
3048.000000	99.495113 
3047.000000	99.489339 
3046.000000	99.478210 
3045.000000	99.468459 
3044.000000	99.463757 
3043.000000	99.462125 
3042.000000	99.460586 
3041.000000	99.459852 
3040.000000	99.462764 
3039.000000	99.469289 
3038.000000	99.475508 
3037.000000	99.477978 
3036.000000	99.477622 
3035.000000	99.478479 
3034.000000	99.483306 
3033.000000	99.491147 
3032.000000	99.498841 
3031.000000	99.504112 
3030.000000	99.506920 
3029.000000	99.508255 
3028.000000	99.508381 
3027.000000	99.506754 
3026.000000	99.503316 
3025.000000	99.499252 
3024.000000	99.496499 
3023.000000	99.497002 
3022.000000	99.502118 
3021.000000	99.511557 
3020.000000	99.522199 
3019.000000	99.528719 
3018.000000	99.526674 
3017.000000	99.515816 
3016.000000	99.500493 
3015.000000	99.486518 
3014.000000	99.477315 
3013.000000	99.472662 
3012.000000	99.470627 
3011.000000	99.470042 
3010.000000	99.470637 
3009.000000	99.471500 
3008.000000	99.471019 
3007.000000	99.468969 
3006.000000	99.467374 
3005.000000	99.468026 
3004.000000	99.469903 
3003.000000	99.470576 
3002.000000	99.469850 
3001.000000	99.470423 
3000.000000	99.474417 
2999.000000	99.480330 
2998.000000	99.484092 
2997.000000	99.482932 
2996.000000	99.478193 
2995.000000	99.474568 
2994.000000	99.475974 
2993.000000	99.481563 
2992.000000	99.486455 
2991.000000	99.487430 
2990.000000	99.487009 
2989.000000	99.490252 
2988.000000	99.497836 
2987.000000	99.504462 
2986.000000	99.504578 
2985.000000	99.497986 
2984.000000	99.489091 
2983.000000	99.482134 
2982.000000	99.478137 
2981.000000	99.475144 
2980.000000	99.470200 
2979.000000	99.461740 
2978.000000	99.451036 
2977.000000	99.441181 
2976.000000	99.434641 
2975.000000	99.432388 
2974.000000	99.435045 
2973.000000	99.443007 
2972.000000	99.454580 
2971.000000	99.465366 
2970.000000	99.470859 
2969.000000	99.469546 
2968.000000	99.463236 
2967.000000	99.455216 
2966.000000	99.448294 
2965.000000	99.443325 
2964.000000	99.438711 
2963.000000	99.432134 
2962.000000	99.423590 
2961.000000	99.416072 
2960.000000	99.412697 
2959.000000	99.413740 
2958.000000	99.416957 
2957.000000	99.420331 
2956.000000	99.424114 
2955.000000	99.430306 
2954.000000	99.439596 
2953.000000	99.448256 
2952.000000	99.449404 
2951.000000	99.439294 
2950.000000	99.422008 
2949.000000	99.405994 
2948.000000	99.396394 
2947.000000	99.392735 
2946.000000	99.393094 
2945.000000	99.396835 
2944.000000	99.402767 
2943.000000	99.408407 
2942.000000	99.412574 
2941.000000	99.415582 
2940.000000	99.415490 
2939.000000	99.407878 
2938.000000	99.391796 
2937.000000	99.372500 
2936.000000	99.355381 
2935.000000	99.340665 
2934.000000	99.327974 
2933.000000	99.322467 
2932.000000	99.330238 
2931.000000	99.348305 
2930.000000	99.364598 
2929.000000	99.368871 
2928.000000	99.360411 
2927.000000	99.345186 
2926.000000	99.329998 
2925.000000	99.320361 
2924.000000	99.319412 
2923.000000	99.325570 
2922.000000	99.333287 
2921.000000	99.338727 
2920.000000	99.343800 
2919.000000	99.353227 
2918.000000	99.368232 
2917.000000	99.384078 
2916.000000	99.393639 
2915.000000	99.393562 
2914.000000	99.387875 
2913.000000	99.385093 
2912.000000	99.390418 
2911.000000	99.400673 
2910.000000	99.408126 
2909.000000	99.408892 
2908.000000	99.406070 
2907.000000	99.404920 
2906.000000	99.407532 
2905.000000	99.412781 
2904.000000	99.419277 
2903.000000	99.425805 
2902.000000	99.430915 
2901.000000	99.432113 
2900.000000	99.427597 
2899.000000	99.418165 
2898.000000	99.407267 
2897.000000	99.399450 
2896.000000	99.397485 
2895.000000	99.401030 
2894.000000	99.408229 
2893.000000	99.417856 
2892.000000	99.428715 
2891.000000	99.437769 
2890.000000	99.441082 
2889.000000	99.437541 
2888.000000	99.430610 
2887.000000	99.425843 
2886.000000	99.426991 
2885.000000	99.433787 
2884.000000	99.442032 
2883.000000	99.445953 
2882.000000	99.442435 
2881.000000	99.434021 
2880.000000	99.426983 
2879.000000	99.426042 
2878.000000	99.431548 
2877.000000	99.440995 
2876.000000	99.451305 
2875.000000	99.459443 
2874.000000	99.463171 
2873.000000	99.462696 
2872.000000	99.460401 
2871.000000	99.457956 
2870.000000	99.454769 
2869.000000	99.449978 
2868.000000	99.444476 
2867.000000	99.439728 
2866.000000	99.435876 
2865.000000	99.432474 
2864.000000	99.429986 
2863.000000	99.428845 
2862.000000	99.427813 
2861.000000	99.425088 
2860.000000	99.420610 
2859.000000	99.415549 
2858.000000	99.410030 
2857.000000	99.403514 
2856.000000	99.397470 
2855.000000	99.395177 
2854.000000	99.397613 
2853.000000	99.401024 
2852.000000	99.400422 
2851.000000	99.395273 
2850.000000	99.390573 
2849.000000	99.392353 
2848.000000	99.402748 
2847.000000	99.419159 
2846.000000	99.436757 
2845.000000	99.450970 
2844.000000	99.458508 
2843.000000	99.457883 
2842.000000	99.450266 
2841.000000	99.439872 
2840.000000	99.432651 
2839.000000	99.433419 
2838.000000	99.443112 
2837.000000	99.458055 
2836.000000	99.472140 
2835.000000	99.480675 
2834.000000	99.483028 
2833.000000	99.481931 
2832.000000	99.480607 
2831.000000	99.480940 
2830.000000	99.483855 
2829.000000	99.489783 
2828.000000	99.497527 
2827.000000	99.503487 
2826.000000	99.503789 
2825.000000	99.497905 
2824.000000	99.489561 
2823.000000	99.483763 
2822.000000	99.483208 
2821.000000	99.487375 
2820.000000	99.493923 
2819.000000	99.500132 
2818.000000	99.503467 
2817.000000	99.501942 
2816.000000	99.495003 
2815.000000	99.484566 
2814.000000	99.474805 
2813.000000	99.469612 
2812.000000	99.469136 
2811.000000	99.469433 
2810.000000	99.466850 
2809.000000	99.462574 
2808.000000	99.461106 
2807.000000	99.463861 
2806.000000	99.466427 
2805.000000	99.463784 
2804.000000	99.456931 
2803.000000	99.452064 
2802.000000	99.453684 
2801.000000	99.460756 
2800.000000	99.469826 
2799.000000	99.479235 
2798.000000	99.488812 
2797.000000	99.497466 
2796.000000	99.503523 
2795.000000	99.506722 
2794.000000	99.507603 
2793.000000	99.505074 
2792.000000	99.497000 
2791.000000	99.484118 
2790.000000	99.471634 
2789.000000	99.465412 
2788.000000	99.467070 
2787.000000	99.473447 
2786.000000	99.479865 
2785.000000	99.482839 
2784.000000	99.480620 
2783.000000	99.473235 
2782.000000	99.462974 
2781.000000	99.454231 
2780.000000	99.451723 
2779.000000	99.457570 
2778.000000	99.468831 
2777.000000	99.478244 
2776.000000	99.479430 
2775.000000	99.472817 
2774.000000	99.465450 
2773.000000	99.463766 
2772.000000	99.467389 
2771.000000	99.471124 
2770.000000	99.471522 
2769.000000	99.469364 
2768.000000	99.466838 
2767.000000	99.465454 
2766.000000	99.466918 
2765.000000	99.472939 
2764.000000	99.482740 
2763.000000	99.492744 
2762.000000	99.499967 
2761.000000	99.504099 
2760.000000	99.505409 
2759.000000	99.503106 
2758.000000	99.497851 
2757.000000	99.493977 
2756.000000	99.496224 
2755.000000	99.504307 
2754.000000	99.512491 
2753.000000	99.514410 
2752.000000	99.507459 
2751.000000	99.493956 
2750.000000	99.480199 
2749.000000	99.473494 
2748.000000	99.476805 
2747.000000	99.485446 
2746.000000	99.491157 
2745.000000	99.490399 
2744.000000	99.487189 
2743.000000	99.487057 
2742.000000	99.490301 
2741.000000	99.492770 
2740.000000	99.491758 
2739.000000	99.488717 
2738.000000	99.486355 
2737.000000	99.485281 
2736.000000	99.484440 
2735.000000	99.483705 
2734.000000	99.484673 
2733.000000	99.488822 
2732.000000	99.495413 
2731.000000	99.501366 
2730.000000	99.503144 
2729.000000	99.499102 
2728.000000	99.490668 
2727.000000	99.481541 
2726.000000	99.475393 
2725.000000	99.473702 
2724.000000	99.475421 
2723.000000	99.478657 
2722.000000	99.482490 
2721.000000	99.486970 
2720.000000	99.491440 
2719.000000	99.493475 
2718.000000	99.490380 
2717.000000	99.482404 
2716.000000	99.474159 
2715.000000	99.471244 
2714.000000	99.474113 
2713.000000	99.476261 
2712.000000	99.471019 
2711.000000	99.460636 
2710.000000	99.455776 
2709.000000	99.463740 
2708.000000	99.479208 
2707.000000	99.489744 
2706.000000	99.489562 
2705.000000	99.484157 
2704.000000	99.481237 
2703.000000	99.481776 
2702.000000	99.482423 
2701.000000	99.482967 
2700.000000	99.486711 
2699.000000	99.494147 
2698.000000	99.500422 
2697.000000	99.500388 
2696.000000	99.493954 
2695.000000	99.485100 
2694.000000	99.477087 
2693.000000	99.470321 
2692.000000	99.464412 
2691.000000	99.460613 
2690.000000	99.461235 
2689.000000	99.466958 
2688.000000	99.475575 
2687.000000	99.483707 
2686.000000	99.489081 
2685.000000	99.490727 
2684.000000	99.488137 
2683.000000	99.481851 
2682.000000	99.474429 
2681.000000	99.468896 
2680.000000	99.465850 
2679.000000	99.463624 
2678.000000	99.461422 
2677.000000	99.460297 
2676.000000	99.460596 
2675.000000	99.460881 
2674.000000	99.460695 
2673.000000	99.462110 
2672.000000	99.466719 
2671.000000	99.472948 
2670.000000	99.478315 
2669.000000	99.482522 
2668.000000	99.485921 
2667.000000	99.486787 
2666.000000	99.483568 
2665.000000	99.479044 
2664.000000	99.478641 
2663.000000	99.484143 
2662.000000	99.491761 
2661.000000	99.496768 
2660.000000	99.497365 
2659.000000	99.493520 
2658.000000	99.485345 
2657.000000	99.474720 
2656.000000	99.466301 
2655.000000	99.464208 
2654.000000	99.467850 
2653.000000	99.472202 
2652.000000	99.472071 
2651.000000	99.466076 
2650.000000	99.457597 
2649.000000	99.452111 
2648.000000	99.452269 
2647.000000	99.455090 
2646.000000	99.455292 
2645.000000	99.451634 
2644.000000	99.448074 
2643.000000	99.448190 
2642.000000	99.450828 
2641.000000	99.452647 
2640.000000	99.452618 
2639.000000	99.451734 
2638.000000	99.450110 
2637.000000	99.447351 
2636.000000	99.445022 
2635.000000	99.445741 
2634.000000	99.449562 
2633.000000	99.453572 
2632.000000	99.455624 
2631.000000	99.456482 
2630.000000	99.457590 
2629.000000	99.458692 
2628.000000	99.458873 
2627.000000	99.458354 
2626.000000	99.457537 
2625.000000	99.455352 
2624.000000	99.450878 
2623.000000	99.446643 
2622.000000	99.447817 
2621.000000	99.456466 
2620.000000	99.467882 
2619.000000	99.474702 
2618.000000	99.474499 
2617.000000	99.471369 
2616.000000	99.469797 
2615.000000	99.469473 
2614.000000	99.467544 
2613.000000	99.463646 
2612.000000	99.459939 
2611.000000	99.457450 
2610.000000	99.455874 
2609.000000	99.456961 
2608.000000	99.464211 
2607.000000	99.477427 
2606.000000	99.490199 
2605.000000	99.495286 
2604.000000	99.491164 
2603.000000	99.481495 
2602.000000	99.469839 
2601.000000	99.457347 
2600.000000	99.444471 
2599.000000	99.431950 
2598.000000	99.420249 
2597.000000	99.410709 
2596.000000	99.407313 
2595.000000	99.414170 
2594.000000	99.429807 
2593.000000	99.446302 
2592.000000	99.456209 
2591.000000	99.459063 
2590.000000	99.459348 
2589.000000	99.459672 
2588.000000	99.458685 
2587.000000	99.455061 
2586.000000	99.450213 
2585.000000	99.445940 
2584.000000	99.441622 
2583.000000	99.435610 
2582.000000	99.428654 
2581.000000	99.424882 
2580.000000	99.429691 
2579.000000	99.446269 
2578.000000	99.471909 
2577.000000	99.496687 
2576.000000	99.508249 
2575.000000	99.500788 
2574.000000	99.479215 
2573.000000	99.453845 
2572.000000	99.432906 
2571.000000	99.421474 
2570.000000	99.423525 
2569.000000	99.439040 
2568.000000	99.459469 
2567.000000	99.472119 
2566.000000	99.471685 
2565.000000	99.464324 
2564.000000	99.459129 
2563.000000	99.459664 
2562.000000	99.465489 
2561.000000	99.476256 
2560.000000	99.489155 
2559.000000	99.495989 
2558.000000	99.489682 
2557.000000	99.473629 
2556.000000	99.459107 
2555.000000	99.452053 
2554.000000	99.446403 
2553.000000	99.432522 
2552.000000	99.409715 
2551.000000	99.388470 
2550.000000	99.381539 
2549.000000	99.393454 
2548.000000	99.417067 
2547.000000	99.439198 
2546.000000	99.450503 
2545.000000	99.450814 
2544.000000	99.445370 
2543.000000	99.437315 
2542.000000	99.425698 
2541.000000	99.410357 
2540.000000	99.396479 
2539.000000	99.392835 
2538.000000	99.405067 
2537.000000	99.429903 
2536.000000	99.455739 
2535.000000	99.470593 
2534.000000	99.471061 
2533.000000	99.463122 
2532.000000	99.454278 
2531.000000	99.447305 
2530.000000	99.442474 
2529.000000	99.441848 
2528.000000	99.447291 
2527.000000	99.456016 
2526.000000	99.462349 
2525.000000	99.463744 
2524.000000	99.462232 
2523.000000	99.460797 
2522.000000	99.461303 
2521.000000	99.464741 
2520.000000	99.469552 
2519.000000	99.470530 
2518.000000	99.463986 
2517.000000	99.454115 
2516.000000	99.449592 
2515.000000	99.452989 
2514.000000	99.457721 
2513.000000	99.456208 
2512.000000	99.446460 
2511.000000	99.429744 
2510.000000	99.407993 
2509.000000	99.387270 
2508.000000	99.378510 
2507.000000	99.388303 
2506.000000	99.409908 
2505.000000	99.427971 
2504.000000	99.432754 
2503.000000	99.427588 
2502.000000	99.422992 
2501.000000	99.426019 
2500.000000	99.434984 
2499.000000	99.442107 
2498.000000	99.440866 
2497.000000	99.432148 
2496.000000	99.423879 
2495.000000	99.424132 
2494.000000	99.433941 
2493.000000	99.445973 
2492.000000	99.449893 
2491.000000	99.440964 
2490.000000	99.425875 
2489.000000	99.418842 
2488.000000	99.428287 
2487.000000	99.447367 
2486.000000	99.461242 
2485.000000	99.463753 
2484.000000	99.461987 
2483.000000	99.463335 
2482.000000	99.464708 
2481.000000	99.459425 
2480.000000	99.450029 
2479.000000	99.446915 
2478.000000	99.454811 
2477.000000	99.466277 
2476.000000	99.469968 
2475.000000	99.462056 
2474.000000	99.448476 
2473.000000	99.438417 
2472.000000	99.436501 
2471.000000	99.439917 
2470.000000	99.442793 
2469.000000	99.443665 
2468.000000	99.446814 
2467.000000	99.454591 
2466.000000	99.461012 
2465.000000	99.457291 
2464.000000	99.443384 
2463.000000	99.429527 
2462.000000	99.424525 
2461.000000	99.425350 
2460.000000	99.420841 
2459.000000	99.404738 
2458.000000	99.383461 
2457.000000	99.371190 
2456.000000	99.378020 
2455.000000	99.402535 
2454.000000	99.434514 
2453.000000	99.463045 
2452.000000	99.481109 
2451.000000	99.484567 
2450.000000	99.471423 
2449.000000	99.444872 
2448.000000	99.414729 
2447.000000	99.391939 
2446.000000	99.380836 
2445.000000	99.377609 
2444.000000	99.375832 
2443.000000	99.372867 
2442.000000	99.372374 
2441.000000	99.381821 
2440.000000	99.405606 
2439.000000	99.438361 
2438.000000	99.466524 
2437.000000	99.479258 
2436.000000	99.477286 
2435.000000	99.469166 
2434.000000	99.460714 
2433.000000	99.451524 
2432.000000	99.440651 
2431.000000	99.431186 
2430.000000	99.427951 
2429.000000	99.433182 
2428.000000	99.445090 
2427.000000	99.458470 
2426.000000	99.466587 
2425.000000	99.465327 
2424.000000	99.456663 
2423.000000	99.446287 
2422.000000	99.437487 
2421.000000	99.429268 
2420.000000	99.420501 
2419.000000	99.413078 
2418.000000	99.409808 
2417.000000	99.411150 
2416.000000	99.415308 
2415.000000	99.420603 
2414.000000	99.427340 
2413.000000	99.438033 
2412.000000	99.454622 
2411.000000	99.473361 
2410.000000	99.484007 
2409.000000	99.478658 
2408.000000	99.462368 
2407.000000	99.450684 
2406.000000	99.454143 
2405.000000	99.467638 
2404.000000	99.476896 
2403.000000	99.472889 
2402.000000	99.458114 
2401.000000	99.442085 
2400.000000	99.433906 
2399.000000	99.436895 
2398.000000	99.446152 
2397.000000	99.451495 
2396.000000	99.446060 
2395.000000	99.433132 
2394.000000	99.423320 
2393.000000	99.424778 
2392.000000	99.436429 
2391.000000	99.449222 
2390.000000	99.452533 
2389.000000	99.440987 
2388.000000	99.417816 
2387.000000	99.391406 
2386.000000	99.366969 
2385.000000	99.342466 
2384.000000	99.315243 
2383.000000	99.292238 
2382.000000	99.289676 
2381.000000	99.319479 
2380.000000	99.376346 
2379.000000	99.440087 
2378.000000	99.490194 
2377.000000	99.516322 
2376.000000	99.516092 
2375.000000	99.489909 
2374.000000	99.443851 
2373.000000	99.394670 
2372.000000	99.362821 
2371.000000	99.355352 
2370.000000	99.360441 
2369.000000	99.364737 
2368.000000	99.371450 
2367.000000	99.392516 
2366.000000	99.426275 
2365.000000	99.456291 
2364.000000	99.474009 
2363.000000	99.488798 
2362.000000	99.509144 
2361.000000	99.521899 
2360.000000	99.499540 
2359.000000	99.437643 
2358.000000	99.371764 
2357.000000	99.348897 
2356.000000	99.381917 
2355.000000	99.439233 
2354.000000	99.483266 
2353.000000	99.496761 
2352.000000	99.483737 
2351.000000	99.456742 
2350.000000	99.426278 
2349.000000	99.402436 
2348.000000	99.390670 
2347.000000	99.391554 
2346.000000	99.395244 
2345.000000	99.388843 
2344.000000	99.367534 
2343.000000	99.337942 
2342.000000	99.325062 
2341.000000	99.348553 
2340.000000	99.403342 
2339.000000	99.463669 
2338.000000	99.504697 
2337.000000	99.514261 
2336.000000	99.492570 
2335.000000	99.448757 
2334.000000	99.396984 
2333.000000	99.344580 
2332.000000	99.292936 
2331.000000	99.249907 
2330.000000	99.228946 
2329.000000	99.233511 
2328.000000	99.242745 
2327.000000	99.236628 
2326.000000	99.214983 
2325.000000	99.194243 
2324.000000	99.189507 
2323.000000	99.199802 
2322.000000	99.216172 
2321.000000	99.225476 
2320.000000	99.219480 
2319.000000	99.199783 
2318.000000	99.181620 
2317.000000	99.183171 
2316.000000	99.207848 
2315.000000	99.240364 
2314.000000	99.259539 
2313.000000	99.256257 
2312.000000	99.235133 
2311.000000	99.207149 
2310.000000	99.183179 
2309.000000	99.172768 
2308.000000	99.178568 
2307.000000	99.190865 
2306.000000	99.193004 
2305.000000	99.175670 
2304.000000	99.145729 
2303.000000	99.118435 
2302.000000	99.104922 
2301.000000	99.106838 
2300.000000	99.119432 
2299.000000	99.136169 
2298.000000	99.152035 
2297.000000	99.168078 
2296.000000	99.190503 
2295.000000	99.222939 
2294.000000	99.258182 
2293.000000	99.283238 
2292.000000	99.292421 
2291.000000	99.292404 
2290.000000	99.293213 
2289.000000	99.298448 
2288.000000	99.306438 
2287.000000	99.315916 
2286.000000	99.326837 
2285.000000	99.337402 
2284.000000	99.344705 
2283.000000	99.346614 
2282.000000	99.341256 
2281.000000	99.326695 
2280.000000	99.304995 
2279.000000	99.284008 
2278.000000	99.271493 
2277.000000	99.268554 
2276.000000	99.272567 
2275.000000	99.284241 
2274.000000	99.305448 
2273.000000	99.331214 
2272.000000	99.351147 
2271.000000	99.360995 
2270.000000	99.366136 
2269.000000	99.371157 
2268.000000	99.372833 
2267.000000	99.368006 
2266.000000	99.362042 
2265.000000	99.362277 
2264.000000	99.366547 
2263.000000	99.366468 
2262.000000	99.360540 
2261.000000	99.355969 
2260.000000	99.356878 
2259.000000	99.358418 
2258.000000	99.356333 
2257.000000	99.355420 
2256.000000	99.362912 
2255.000000	99.377042 
2254.000000	99.389123 
2253.000000	99.395624 
2252.000000	99.401218 
2251.000000	99.408851 
2250.000000	99.413250 
2249.000000	99.407458 
2248.000000	99.392266 
2247.000000	99.375287 
2246.000000	99.363183 
2245.000000	99.358056 
2244.000000	99.357147 
2243.000000	99.352505 
2242.000000	99.335753 
2241.000000	99.310565 
2240.000000	99.296691 
2239.000000	99.310481 
2238.000000	99.340654 
2237.000000	99.354749 
2236.000000	99.335022 
2235.000000	99.298756 
2234.000000	99.276867 
2233.000000	99.281776 
2232.000000	99.304554 
2231.000000	99.333375 
2230.000000	99.359787 
2229.000000	99.371972 
2228.000000	99.360104 
2227.000000	99.331090 
2226.000000	99.304302 
2225.000000	99.288659 
2224.000000	99.275365 
2223.000000	99.257849 
2222.000000	99.246458 
2221.000000	99.255105 
2220.000000	99.283307 
2219.000000	99.321080 
2218.000000	99.363529 
2217.000000	99.409653 
2216.000000	99.451761 
2215.000000	99.476799 
2214.000000	99.476790 
2213.000000	99.451234 
2212.000000	99.402772 
2211.000000	99.339762 
2210.000000	99.282428 
2209.000000	99.255798 
2208.000000	99.270133 
2207.000000	99.310296 
2206.000000	99.345690 
2205.000000	99.351143 
2204.000000	99.323925 
2203.000000	99.285756 
2202.000000	99.265951 
2201.000000	99.276875 
2200.000000	99.305266 
2199.000000	99.329620 
2198.000000	99.341289 
2197.000000	99.343301 
2196.000000	99.335282 
2195.000000	99.311847 
2194.000000	99.276851 
2193.000000	99.248573 
2192.000000	99.244531 
2191.000000	99.264989 
2190.000000	99.293746 
2189.000000	99.311648 
2188.000000	99.309465 
2187.000000	99.293044 
2186.000000	99.278791 
2185.000000	99.281940 
2184.000000	99.307695 
2183.000000	99.353802 
2182.000000	99.415899 
2181.000000	99.482406 
2180.000000	99.529402 
2179.000000	99.535567 
2178.000000	99.506963 
2177.000000	99.476718 
2176.000000	99.470278 
2175.000000	99.476806 
2174.000000	99.466867 
2173.000000	99.434057 
2172.000000	99.403195 
2171.000000	99.395021 
2170.000000	99.398647 
2169.000000	99.390325 
2168.000000	99.370538 
2167.000000	99.364064 
2166.000000	99.380740 
2165.000000	99.394774 
2164.000000	99.378039 
2163.000000	99.342805 
2162.000000	99.330627 
2161.000000	99.360325 
2160.000000	99.406699 
2159.000000	99.438632 
2158.000000	99.455234 
2157.000000	99.465002 
2156.000000	99.455449 
2155.000000	99.411534 
2154.000000	99.349792 
2153.000000	99.309677 
2152.000000	99.310114 
2151.000000	99.330067 
2150.000000	99.336856 
2149.000000	99.322620 
2148.000000	99.306248 
2147.000000	99.306486 
2146.000000	99.323136 
2145.000000	99.343755 
2144.000000	99.360248 
2143.000000	99.374332 
2142.000000	99.389955 
2141.000000	99.406126 
2140.000000	99.417968 
2139.000000	99.420375 
2138.000000	99.408539 
2137.000000	99.380476 
2136.000000	99.345134 
2135.000000	99.324186 
2134.000000	99.336001 
2133.000000	99.375314 
2132.000000	99.415446 
2131.000000	99.433268 
2130.000000	99.427298 
2129.000000	99.411919 
2128.000000	99.402052 
2127.000000	99.406731 
2126.000000	99.428983 
2125.000000	99.461960 
2124.000000	99.487673 
2123.000000	99.489226 
2122.000000	99.466626 
2121.000000	99.435922 
2120.000000	99.411675 
2119.000000	99.394590 
2118.000000	99.377132 
2117.000000	99.355752 
2116.000000	99.334761 
2115.000000	99.322190 
2114.000000	99.325404 
2113.000000	99.347805 
2112.000000	99.384825 
2111.000000	99.422460 
2110.000000	99.443038 
2109.000000	99.436980 
2108.000000	99.411962 
2107.000000	99.389297 
2106.000000	99.386850 
2105.000000	99.402386 
2104.000000	99.415699 
2103.000000	99.410479 
2102.000000	99.391892 
2101.000000	99.378513 
2100.000000	99.379136 
2099.000000	99.384333 
2098.000000	99.381886 
2097.000000	99.373390 
2096.000000	99.370794 
2095.000000	99.380805 
2094.000000	99.398499 
2093.000000	99.414516 
2092.000000	99.423063 
2091.000000	99.422585 
2090.000000	99.413682 
2089.000000	99.399608 
2088.000000	99.386630 
2087.000000	99.380375 
2086.000000	99.380859 
2085.000000	99.382206 
2084.000000	99.377995 
2083.000000	99.366060 
2082.000000	99.347883 
2081.000000	99.326065 
2080.000000	99.305447 
2079.000000	99.295038 
2078.000000	99.303182 
2077.000000	99.327881 
2076.000000	99.355774 
2075.000000	99.374646 
2074.000000	99.383494 
2073.000000	99.386353 
2072.000000	99.380255 
2071.000000	99.357526 
2070.000000	99.322171 
2069.000000	99.296896 
2068.000000	99.305842 
2067.000000	99.349614 
2066.000000	99.400742 
2065.000000	99.426054 
2064.000000	99.414334 
2063.000000	99.381390 
2062.000000	99.351010 
2061.000000	99.336815 
2060.000000	99.341290 
2059.000000	99.362632 
2058.000000	99.394185 
2057.000000	99.420892 
2056.000000	99.427690 
2055.000000	99.414388 
2054.000000	99.394631 
2053.000000	99.377817 
2052.000000	99.360814 
2051.000000	99.341484 
2050.000000	99.330376 
2049.000000	99.338501 
2048.000000	99.358539 
2047.000000	99.372247 
2046.000000	99.373802 
2045.000000	99.370466 
2044.000000	99.362875 
2043.000000	99.343186 
2042.000000	99.317469 
2041.000000	99.312386 
2040.000000	99.345999 
2039.000000	99.402177 
2038.000000	99.447013 
2037.000000	99.465282 
2036.000000	99.468811 
2035.000000	99.469176 
2034.000000	99.457547 
2033.000000	99.423126 
2032.000000	99.381888 
2031.000000	99.367405 
2030.000000	99.389310 
2029.000000	99.415394 
2028.000000	99.408604 
2027.000000	99.375426 
2026.000000	99.359483 
2025.000000	99.387504 
2024.000000	99.439612 
2023.000000	99.478490 
2022.000000	99.488333 
2021.000000	99.471712 
2020.000000	99.427849 
2019.000000	99.359437 
2018.000000	99.295312 
2017.000000	99.277043 
2016.000000	99.312345 
2015.000000	99.362569 
2014.000000	99.384474 
2013.000000	99.367946 
2012.000000	99.328963 
2011.000000	99.282964 
2010.000000	99.238805 
2009.000000	99.208894 
2008.000000	99.205754 
2007.000000	99.225908 
2006.000000	99.247177 
2005.000000	99.247915 
2004.000000	99.228672 
2003.000000	99.213209 
2002.000000	99.227403 
2001.000000	99.273387 
2000.000000	99.324334 
1999.000000	99.348291 
1998.000000	99.334876 
1997.000000	99.298423 
1996.000000	99.261131 
1995.000000	99.238508 
1994.000000	99.238876 
1993.000000	99.266928 
1992.000000	99.320997 
1991.000000	99.389593 
1990.000000	99.452269 
1989.000000	99.483428 
1988.000000	99.463946 
1987.000000	99.399369 
1986.000000	99.323444 
1985.000000	99.272487 
1984.000000	99.255030 
1983.000000	99.254823 
1982.000000	99.261935 
1981.000000	99.285637 
1980.000000	99.331110 
1979.000000	99.377791 
1978.000000	99.397196 
1977.000000	99.390179 
1976.000000	99.386068 
1975.000000	99.400871 
1974.000000	99.416374 
1973.000000	99.406824 
1972.000000	99.371342 
1971.000000	99.329913 
1970.000000	99.296574 
1969.000000	99.270050 
1968.000000	99.248240 
1967.000000	99.239143 
1966.000000	99.251156 
1965.000000	99.278738 
1964.000000	99.306237 
1963.000000	99.324140 
1962.000000	99.335381 
1961.000000	99.345834 
1960.000000	99.353967 
1959.000000	99.353432 
1958.000000	99.343533 
1957.000000	99.333256 
1956.000000	99.334973 
1955.000000	99.355678 
1954.000000	99.391435 
1953.000000	99.426355 
1952.000000	99.438936 
1951.000000	99.417964 
1950.000000	99.377599 
1949.000000	99.350260 
1948.000000	99.357334 
1947.000000	99.389310 
1946.000000	99.419315 
1945.000000	99.432581 
1944.000000	99.434846 
1943.000000	99.433064 
1942.000000	99.420541 
1941.000000	99.390495 
1940.000000	99.355635 
1939.000000	99.339772 
1938.000000	99.350103 
1937.000000	99.366467 
1936.000000	99.363401 
1935.000000	99.338536 
1934.000000	99.312557 
1933.000000	99.305629 
1932.000000	99.319784 
1931.000000	99.343664 
1930.000000	99.366577 
1929.000000	99.381490 
1928.000000	99.383682 
1927.000000	99.373932 
1926.000000	99.359282 
1925.000000	99.345451 
1924.000000	99.329689 
1923.000000	99.308587 
1922.000000	99.289905 
1921.000000	99.285789 
1920.000000	99.297104 
1919.000000	99.312311 
1918.000000	99.320760 
1917.000000	99.322265 
1916.000000	99.321963 
1915.000000	99.323291 
1914.000000	99.327387 
1913.000000	99.332933 
1912.000000	99.334585 
1911.000000	99.326037 
1910.000000	99.308149 
1909.000000	99.290152 
1908.000000	99.282056 
1907.000000	99.287224 
1906.000000	99.301373 
1905.000000	99.315350 
1904.000000	99.319771 
1903.000000	99.314205 
1902.000000	99.309319 
1901.000000	99.313892 
1900.000000	99.324661 
1899.000000	99.333215 
1898.000000	99.338581 
1897.000000	99.346966 
1896.000000	99.359174 
1895.000000	99.367381 
1894.000000	99.367073 
1893.000000	99.364388 
1892.000000	99.369328 
1891.000000	99.385695 
1890.000000	99.407583 
1889.000000	99.424115 
1888.000000	99.429131 
1887.000000	99.426225 
1886.000000	99.421768 
1885.000000	99.415022 
1884.000000	99.399077 
1883.000000	99.372530 
1882.000000	99.344869 
1881.000000	99.325846 
1880.000000	99.316286 
1879.000000	99.312534 
1878.000000	99.313166 
1877.000000	99.317302 
1876.000000	99.320819 
1875.000000	99.321175 
1874.000000	99.323791 
1873.000000	99.334377 
1872.000000	99.347086 
1871.000000	99.349484 
1870.000000	99.340154 
1869.000000	99.333109 
1868.000000	99.336852 
1867.000000	99.341864 
1866.000000	99.337127 
1865.000000	99.324692 
1864.000000	99.315168 
1863.000000	99.315645 
1862.000000	99.323842 
1861.000000	99.332886 
1860.000000	99.339334 
1859.000000	99.346186 
1858.000000	99.356800 
1857.000000	99.365977 
1856.000000	99.363407 
1855.000000	99.348205 
1854.000000	99.333125 
1853.000000	99.328994 
1852.000000	99.332492 
1851.000000	99.333999 
1850.000000	99.329485 
1849.000000	99.321471 
1848.000000	99.312208 
1847.000000	99.302538 
1846.000000	99.295727 
1845.000000	99.296602 
1844.000000	99.304368 
1843.000000	99.312723 
1842.000000	99.317465 
1841.000000	99.317731 
1840.000000	99.314632 
1839.000000	99.310065 
1838.000000	99.306468 
1837.000000	99.306442 
1836.000000	99.310903 
1835.000000	99.319251 
1834.000000	99.329174 
1833.000000	99.337069 
1832.000000	99.341912 
1831.000000	99.344762 
1830.000000	99.344334 
1829.000000	99.339837 
1828.000000	99.333897 
1827.000000	99.329494 
1826.000000	99.328264 
1825.000000	99.330973 
1824.000000	99.336786 
1823.000000	99.343135 
1822.000000	99.348821 
1821.000000	99.353545 
1820.000000	99.354939 
1819.000000	99.349183 
1818.000000	99.337862 
1817.000000	99.329174 
1816.000000	99.325954 
1815.000000	99.322587 
1814.000000	99.315910 
1813.000000	99.312592 
1812.000000	99.320988 
1811.000000	99.337415 
1810.000000	99.351876 
1809.000000	99.359564 
1808.000000	99.358804 
1807.000000	99.350635 
1806.000000	99.342402 
1805.000000	99.341623 
1804.000000	99.345222 
1803.000000	99.343512 
1802.000000	99.333697 
1801.000000	99.322923 
1800.000000	99.315469 
1799.000000	99.307656 
1798.000000	99.301487 
1797.000000	99.304826 
1796.000000	99.316617 
1795.000000	99.326623 
1794.000000	99.327905 
1793.000000	99.324951 
1792.000000	99.325554 
1791.000000	99.329736 
1790.000000	99.334608 
1789.000000	99.338043 
1788.000000	99.336330 
1787.000000	99.326392 
1786.000000	99.311173 
1785.000000	99.297535 
1784.000000	99.287397 
1783.000000	99.280760 
1782.000000	99.281788 
1781.000000	99.294354 
1780.000000	99.313312 
1779.000000	99.324966 
1778.000000	99.322882 
1777.000000	99.313816 
1776.000000	99.309562 
1775.000000	99.316778 
1774.000000	99.329106 
1773.000000	99.330837 
1772.000000	99.316091 
1771.000000	99.298074 
1770.000000	99.290345 
1769.000000	99.295408 
1768.000000	99.308269 
1767.000000	99.319348 
1766.000000	99.321417 
1765.000000	99.316166 
1764.000000	99.311634 
1763.000000	99.313245 
1762.000000	99.317051 
1761.000000	99.316217 
1760.000000	99.308973 
1759.000000	99.295925 
1758.000000	99.278600 
1757.000000	99.258544 
1756.000000	99.240996 
1755.000000	99.230993 
1754.000000	99.229087 
1753.000000	99.235392 
1752.000000	99.249119 
1751.000000	99.259103 
1750.000000	99.247715 
1749.000000	99.215781 
1748.000000	99.186613 
1747.000000	99.178747 
1746.000000	99.184520 
1745.000000	99.186021 
1744.000000	99.179843 
1743.000000	99.173448 
1742.000000	99.169715 
1741.000000	99.167320 
1740.000000	99.167615 
1739.000000	99.172310 
1738.000000	99.175778 
1737.000000	99.170542 
1736.000000	99.153855 
1735.000000	99.130116 
1734.000000	99.109835 
1733.000000	99.104428 
1732.000000	99.115343 
1731.000000	99.135364 
1730.000000	99.158319 
1729.000000	99.176509 
1728.000000	99.187756 
1727.000000	99.195302 
1726.000000	99.200855 
1725.000000	99.202632 
1724.000000	99.201341 
1723.000000	99.199593 
1722.000000	99.200020 
1721.000000	99.203301 
1720.000000	99.209156 
1719.000000	99.215435 
1718.000000	99.219535 
1717.000000	99.227049 
1716.000000	99.238586 
1715.000000	99.244742 
1714.000000	99.246316 
1713.000000	99.248938 
1712.000000	99.250564 
1711.000000	99.248077 
1710.000000	99.243944 
1709.000000	99.241248 
1708.000000	99.239667 
1707.000000	99.238929 
1706.000000	99.245002 
1705.000000	99.264792 
1704.000000	99.283940 
1703.000000	99.279856 
1702.000000	99.243046 
1701.000000	99.195603 
1700.000000	99.176921 
1699.000000	99.184764 
1698.000000	99.194518 
1697.000000	99.200395 
1696.000000	99.200968 
1695.000000	99.198878 
1694.000000	99.204264 
1693.000000	99.217328 
1692.000000	99.229391 
1691.000000	99.231045 
1690.000000	99.223654 
1689.000000	99.216600 
1688.000000	99.214872 
1687.000000	99.216305 
1686.000000	99.218836 
1685.000000	99.222220 
1684.000000	99.214888 
1683.000000	99.201543 
1682.000000	99.195792 
1681.000000	99.192249 
1680.000000	99.191414 
1679.000000	99.195719 
1678.000000	99.203544 
1677.000000	99.207048 
1676.000000	99.203374 
1675.000000	99.200644 
1674.000000	99.204537 
1673.000000	99.208358 
1672.000000	99.205005 
1671.000000	99.194025 
1670.000000	99.180292 
1669.000000	99.167782 
1668.000000	99.159759 
1667.000000	99.157768 
1666.000000	99.158155 
1665.000000	99.158030 
1664.000000	99.156109 
1663.000000	99.153193 
1662.000000	99.154025 
1661.000000	99.159253 
1660.000000	99.165861 
1659.000000	99.171529 
1658.000000	99.174657 
1657.000000	99.169364 
1656.000000	99.155213 
1655.000000	99.138838 
1654.000000	99.126911 
1653.000000	99.113081 
1652.000000	99.112211 
1651.000000	99.127971 
1650.000000	99.135254 
1649.000000	99.133546 
1648.000000	99.124959 
1647.000000	99.116606 
1646.000000	99.114123 
1645.000000	99.122429 
1644.000000	99.131282 
1643.000000	99.133136 
1642.000000	99.130101 
1641.000000	99.125615 
1640.000000	99.117452 
1639.000000	99.102964 
1638.000000	99.086840 
1637.000000	99.078279 
1636.000000	99.077840 
1635.000000	99.084287 
1634.000000	99.098840 
1633.000000	99.115956 
1632.000000	99.129477 
1631.000000	99.137525 
1630.000000	99.141490 
1629.000000	99.142425 
1628.000000	99.141858 
1627.000000	99.145227 
1626.000000	99.156334 
1625.000000	99.170269 
1624.000000	99.176565 
1623.000000	99.171131 
1622.000000	99.162251 
1621.000000	99.155431 
1620.000000	99.150242 
1619.000000	99.148290 
1618.000000	99.153338 
1617.000000	99.161595 
1616.000000	99.166154 
1615.000000	99.171678 
1614.000000	99.179129 
1613.000000	99.180468 
1612.000000	99.171642 
1611.000000	99.160449 
1610.000000	99.157839 
1609.000000	99.163224 
1608.000000	99.169688 
1607.000000	99.176609 
1606.000000	99.183214 
1605.000000	99.181055 
1604.000000	99.166957 
1603.000000	99.151213 
1602.000000	99.144801 
1601.000000	99.146632 
1600.000000	99.150871 
1599.000000	99.157407 
1598.000000	99.165522 
1597.000000	99.167231 
1596.000000	99.155663 
1595.000000	99.137323 
1594.000000	99.127513 
1593.000000	99.132606 
1592.000000	99.146074 
1591.000000	99.160161 
1590.000000	99.171667 
1589.000000	99.177917 
1588.000000	99.177329 
1587.000000	99.173696 
1586.000000	99.172751 
1585.000000	99.173843 
1584.000000	99.173927 
1583.000000	99.175951 
1582.000000	99.181983 
1581.000000	99.185537 
1580.000000	99.181417 
1579.000000	99.176508 
1578.000000	99.180927 
1577.000000	99.191025 
1576.000000	99.191725 
1575.000000	99.187393 
1574.000000	99.189798 
1573.000000	99.194069 
1572.000000	99.195152 
1571.000000	99.195032 
1570.000000	99.197440 
1569.000000	99.198337 
1568.000000	99.197236 
1567.000000	99.198339 
1566.000000	99.200528 
1565.000000	99.196237 
1564.000000	99.187351 
1563.000000	99.181379 
1562.000000	99.185896 
1561.000000	99.196315 
1560.000000	99.212575 
1559.000000	99.211878 
1558.000000	99.193158 
1557.000000	99.189544 
1556.000000	99.189435 
1555.000000	99.190289 
1554.000000	99.185671 
1553.000000	99.176575 
1552.000000	99.164027 
1551.000000	99.151648 
1550.000000	99.141652 
1549.000000	99.139689 
1548.000000	99.148846 
1547.000000	99.166506 
1546.000000	99.184826 
1545.000000	99.196056 
1544.000000	99.199684 
1543.000000	99.200931 
1542.000000	99.203435 
1541.000000	99.200330 
1540.000000	99.169258 
1539.000000	99.131784 
1538.000000	99.129659 
1537.000000	99.151229 
1536.000000	99.173779 
1535.000000	99.188053 
1534.000000	99.193461 
1533.000000	99.194434 
1532.000000	99.195663 
1531.000000	99.192563 
1530.000000	99.183842 
1529.000000	99.178246 
1528.000000	99.183703 
1527.000000	99.198437 
1526.000000	99.212797 
1525.000000	99.221964 
1524.000000	99.229072 
1523.000000	99.235460 
1522.000000	99.232084 
1521.000000	99.211139 
1520.000000	99.184417 
1519.000000	99.167112 
1518.000000	99.162881 
1517.000000	99.170434 
1516.000000	99.184254 
1515.000000	99.195910 
1514.000000	99.198147 
1513.000000	99.192162 
1512.000000	99.185608 
1511.000000	99.179821 
1510.000000	99.172153 
1509.000000	99.165792 
1508.000000	99.175770 
1507.000000	99.189687 
1506.000000	99.189722 
1505.000000	99.192243 
1504.000000	99.196345 
1503.000000	99.194654 
1502.000000	99.187081 
1501.000000	99.180097 
1500.000000	99.183332 
1499.000000	99.201532 
1498.000000	99.223991 
1497.000000	99.236477 
1496.000000	99.233757 
1495.000000	99.219025 
1494.000000	99.199921 
1493.000000	99.183657 
1492.000000	99.173876 
1491.000000	99.170478 
1490.000000	99.172021 
1489.000000	99.180640 
1488.000000	99.192938 
1487.000000	99.199129 
1486.000000	99.201493 
1485.000000	99.203280 
1484.000000	99.200045 
1483.000000	99.190522 
1482.000000	99.181960 
1481.000000	99.184299 
1480.000000	99.193925 
1479.000000	99.195552 
1478.000000	99.181183 
1477.000000	99.160888 
1476.000000	99.149282 
1475.000000	99.149566 
1474.000000	99.157466 
1473.000000	99.166001 
1472.000000	99.167267 
1471.000000	99.157307 
1470.000000	99.141001 
1469.000000	99.130045 
1468.000000	99.132379 
1467.000000	99.143286 
1466.000000	99.151473 
1465.000000	99.150349 
1464.000000	99.144193 
1463.000000	99.137269 
1462.000000	99.127876 
1461.000000	99.118485 
1460.000000	99.118250 
1459.000000	99.134310 
1458.000000	99.153288 
1457.000000	99.152333 
1456.000000	99.141911 
1455.000000	99.140529 
1454.000000	99.142094 
1453.000000	99.143813 
1452.000000	99.147185 
1451.000000	99.151545 
1450.000000	99.153021 
1449.000000	99.154529 
1448.000000	99.161225 
1447.000000	99.168931 
1446.000000	99.167261 
1445.000000	99.153534 
1444.000000	99.137987 
1443.000000	99.130331 
1442.000000	99.130353 
1441.000000	99.132355 
1440.000000	99.134588 
1439.000000	99.136566 
1438.000000	99.132043 
1437.000000	99.117541 
1436.000000	99.104359 
1435.000000	99.102197 
1434.000000	99.104624 
1433.000000	99.106742 
1432.000000	99.111130 
1431.000000	99.120666 
1430.000000	99.130099 
1429.000000	99.133286 
1428.000000	99.131865 
1427.000000	99.130439 
1426.000000	99.129091 
1425.000000	99.122602 
1424.000000	99.113312 
1423.000000	99.108801 
1422.000000	99.110149 
1421.000000	99.115081 
1420.000000	99.126506 
1419.000000	99.142932 
1418.000000	99.151944 
1417.000000	99.151818 
1416.000000	99.152811 
1415.000000	99.158273 
1414.000000	99.159935 
1413.000000	99.151946 
1412.000000	99.141889 
1411.000000	99.141079 
1410.000000	99.147764 
1409.000000	99.153567 
1408.000000	99.155155 
1407.000000	99.153534 
1406.000000	99.149595 
1405.000000	99.144671 
1404.000000	99.145697 
1403.000000	99.154550 
1402.000000	99.160449 
1401.000000	99.151979 
1400.000000	99.129230 
1399.000000	99.105470 
1398.000000	99.094964 
1397.000000	99.102962 
1396.000000	99.125307 
1395.000000	99.149639 
1394.000000	99.160155 
1393.000000	99.154229 
1392.000000	99.146632 
1391.000000	99.148242 
1390.000000	99.154746 
1389.000000	99.156356 
1388.000000	99.151731 
1387.000000	99.149247 
1386.000000	99.154124 
1385.000000	99.160930 
1384.000000	99.162680 
1383.000000	99.158264 
1382.000000	99.151106 
1381.000000	99.146129 
1380.000000	99.145725 
1379.000000	99.149140 
1378.000000	99.153449 
1377.000000	99.156054 
1376.000000	99.157170 
1375.000000	99.158863 
1374.000000	99.159642 
1373.000000	99.154751 
1372.000000	99.143733 
1371.000000	99.133711 
1370.000000	99.132613 
1369.000000	99.138990 
1368.000000	99.145984 
1367.000000	99.149894 
1366.000000	99.151616 
1365.000000	99.153253 
1364.000000	99.155702 
1363.000000	99.159242 
1362.000000	99.164009 
1361.000000	99.167717 
1360.000000	99.166517 
1359.000000	99.160535 
1358.000000	99.154764 
1357.000000	99.153739 
1356.000000	99.157959 
1355.000000	99.165172 
1354.000000	99.173055 
1353.000000	99.180618 
1352.000000	99.186029 
1351.000000	99.187861 
1350.000000	99.187548 
1349.000000	99.184607 
1348.000000	99.177082 
1347.000000	99.166290 
1346.000000	99.158631 
1345.000000	99.159402 
1344.000000	99.166601 
1343.000000	99.173043 
1342.000000	99.174299 
1341.000000	99.172008 
1340.000000	99.169962 
1339.000000	99.168921 
1338.000000	99.166755 
1337.000000	99.163946 
1336.000000	99.164864 
1335.000000	99.171228 
1334.000000	99.178349 
1333.000000	99.180774 
1332.000000	99.179344 
1331.000000	99.179732 
1330.000000	99.184208 
1329.000000	99.188796 
1328.000000	99.189645 
1327.000000	99.188518 
1326.000000	99.188979 
1325.000000	99.190142 
1324.000000	99.189741 
1323.000000	99.188097 
1322.000000	99.186007 
1321.000000	99.182822 
1320.000000	99.179947 
1319.000000	99.181912 
1318.000000	99.189795 
1317.000000	99.197104 
1316.000000	99.196163 
1315.000000	99.186207 
1314.000000	99.172666 
1313.000000	99.161727 
1312.000000	99.157759 
1311.000000	99.162998 
1310.000000	99.175461 
1309.000000	99.188430 
1308.000000	99.194898 
1307.000000	99.193152 
1306.000000	99.186278 
1305.000000	99.176697 
1304.000000	99.165921 
1303.000000	99.157749 
1302.000000	99.157730 
1301.000000	99.167504 
1300.000000	99.181512 
1299.000000	99.190577 
1298.000000	99.189423 
1297.000000	99.180892 
1296.000000	99.172536 
1295.000000	99.169150 
1294.000000	99.168815 
1293.000000	99.167097 
1292.000000	99.163553 
1291.000000	99.161569 
1290.000000	99.162521 
1289.000000	99.163338 
1288.000000	99.160817 
1287.000000	99.155733 
1286.000000	99.150823 
1285.000000	99.146775 
1284.000000	99.142514 
1283.000000	99.138231 
1282.000000	99.136201 
1281.000000	99.138063 
1280.000000	99.142256 
1279.000000	99.145334 
1278.000000	99.145919 
1277.000000	99.146746 
1276.000000	99.150971 
1275.000000	99.156474 
1274.000000	99.155961 
1273.000000	99.144738 
1272.000000	99.126907 
1271.000000	99.111381 
1270.000000	99.102799 
1269.000000	99.099330 
1268.000000	99.098417 
1267.000000	99.099752 
1266.000000	99.101891 
1265.000000	99.101042 
1264.000000	99.095115 
1263.000000	99.086122 
1262.000000	99.077862 
1261.000000	99.073724 
1260.000000	99.076730 
1259.000000	99.087470 
1258.000000	99.100245 
1257.000000	99.105967 
1256.000000	99.101214 
1255.000000	99.091611 
1254.000000	99.084491 
1253.000000	99.081264 
1252.000000	99.079435 
1251.000000	99.078981 
1250.000000	99.082515 
1249.000000	99.090012 
1248.000000	99.096774 
1247.000000	99.097180 
1246.000000	99.089803 
1245.000000	99.080132 
1244.000000	99.078087 
1243.000000	99.089926 
1242.000000	99.111017 
1241.000000	99.128777 
1240.000000	99.134265 
1239.000000	99.129466 
1238.000000	99.122655 
1237.000000	99.118994 
1236.000000	99.117314 
1235.000000	99.113967 
1234.000000	99.107257 
1233.000000	99.098783 
1232.000000	99.092154 
1231.000000	99.090052 
1230.000000	99.091640 
1229.000000	99.093535 
1228.000000	99.093575 
1227.000000	99.092551 
1226.000000	99.092184 
1225.000000	99.092899 
1224.000000	99.094415 
1223.000000	99.097267 
1222.000000	99.102381 
1221.000000	99.109363 
1220.000000	99.116235 
1219.000000	99.121255 
1218.000000	99.124659 
1217.000000	99.128071 
1216.000000	99.131980 
1215.000000	99.134927 
1214.000000	99.136307 
1213.000000	99.138658 
1212.000000	99.144253 
1211.000000	99.149545 
1210.000000	99.147084 
1209.000000	99.134554 
1208.000000	99.118706 
1207.000000	99.108491 
1206.000000	99.107124 
1205.000000	99.112563 
1204.000000	99.122081 
1203.000000	99.133205 
1202.000000	99.142921 
1201.000000	99.149149 
1200.000000	99.151223 
1199.000000	99.147322 
1198.000000	99.135174 
1197.000000	99.118432 
1196.000000	99.107922 
1195.000000	99.111089 
1194.000000	99.122275 
1193.000000	99.128182 
1192.000000	99.121666 
1191.000000	99.106555 
1190.000000	99.091739 
1189.000000	99.085494 
1188.000000	99.092962 
1187.000000	99.112013 
1186.000000	99.131555 
1185.000000	99.140133 
1184.000000	99.136815 
1183.000000	99.129213 
1182.000000	99.121507 
1181.000000	99.110154 
1180.000000	99.092426 
1179.000000	99.073571 
1178.000000	99.062079 
1177.000000	99.060615 
1176.000000	99.063800 
1175.000000	99.063423 
1174.000000	99.055517 
1173.000000	99.044208 
1172.000000	99.038917 
1171.000000	99.046303 
1170.000000	99.064919 
1169.000000	99.087741 
1168.000000	99.106952 
1167.000000	99.115173 
1166.000000	99.107971 
1165.000000	99.090515 
1164.000000	99.077517 
1163.000000	99.079385 
1162.000000	99.090033 
1161.000000	99.094612 
1160.000000	99.087443 
1159.000000	99.075633 
1158.000000	99.066959 
1157.000000	99.062652 
1156.000000	99.062012 
1155.000000	99.065126 
1154.000000	99.069030 
1153.000000	99.068941 
1152.000000	99.065878 
1151.000000	99.066359 
1150.000000	99.072010 
1149.000000	99.075758 
1148.000000	99.071028 
1147.000000	99.059076 
1146.000000	99.044789 
1145.000000	99.031016 
1144.000000	99.020109 
1143.000000	99.015784 
1142.000000	99.019692 
1141.000000	99.029729 
1140.000000	99.043124 
1139.000000	99.056462 
1138.000000	99.062439 
1137.000000	99.054046 
1136.000000	99.034667 
1135.000000	99.017033 
1134.000000	99.008333 
1133.000000	99.002872 
1132.000000	98.993596 
1131.000000	98.983495 
1130.000000	98.979003 
1129.000000	98.977500 
1128.000000	98.969239 
1127.000000	98.949472 
1126.000000	98.922951 
1125.000000	98.898087 
1124.000000	98.881194 
1123.000000	98.874514 
1122.000000	98.875133 
1121.000000	98.876918 
1120.000000	98.876458 
1119.000000	98.875323 
1118.000000	98.874641 
1117.000000	98.871337 
1116.000000	98.863064 
1115.000000	98.852958 
1114.000000	98.844664 
1113.000000	98.835256 
1112.000000	98.818560 
1111.000000	98.795168 
1110.000000	98.774560 
1109.000000	98.766058 
1108.000000	98.769341 
1107.000000	98.773075 
1106.000000	98.763409 
1105.000000	98.735884 
1104.000000	98.699130 
1103.000000	98.665825 
1102.000000	98.640561 
1101.000000	98.620897 
1100.000000	98.607260 
1099.000000	98.602812 
1098.000000	98.605193 
1097.000000	98.603631 
1096.000000	98.590492 
1095.000000	98.569814 
1094.000000	98.551103 
1093.000000	98.538848 
1092.000000	98.531570 
1091.000000	98.526360 
1090.000000	98.519971 
1089.000000	98.508731 
1088.000000	98.491336 
1087.000000	98.470250 
1086.000000	98.449159 
1085.000000	98.431795 
1084.000000	98.422934 
1083.000000	98.424790 
1082.000000	98.431494 
1081.000000	98.433855 
1080.000000	98.430978 
1079.000000	98.428955 
1078.000000	98.425367 
1077.000000	98.405872 
1076.000000	98.364269 
1075.000000	98.318338 
1074.000000	98.295001 
1073.000000	98.302504 
1072.000000	98.325523 
1071.000000	98.344680 
1070.000000	98.352588 
1069.000000	98.351914 
1068.000000	98.345745 
1067.000000	98.333041 
1066.000000	98.311193 
1065.000000	98.282694 
1064.000000	98.259274 
1063.000000	98.254095 
1062.000000	98.264783 
1061.000000	98.268746 
1060.000000	98.243651 
1059.000000	98.192347 
1058.000000	98.140716 
1057.000000	98.109623 
1056.000000	98.095503 
1055.000000	98.081043 
1054.000000	98.059007 
1053.000000	98.039014 
1052.000000	98.030582 
1051.000000	98.025376 
1050.000000	98.002871 
1049.000000	97.953282 
1048.000000	97.887927 
1047.000000	97.825322 
1046.000000	97.774073 
1045.000000	97.733058 
1044.000000	97.700862 
1043.000000	97.676644 
1042.000000	97.655252 
1041.000000	97.630475 
1040.000000	97.602664 
1039.000000	97.575161 
1038.000000	97.543856 
1037.000000	97.500411 
1036.000000	97.447905 
1035.000000	97.402352 
1034.000000	97.372608 
1033.000000	97.347329 
1032.000000	97.309151 
1031.000000	97.255613 
1030.000000	97.199253 
1029.000000	97.152732 
1028.000000	97.121380 
1027.000000	97.104349 
1026.000000	97.092676 
1025.000000	97.069302 
1024.000000	97.022317 
1023.000000	96.960187 
1022.000000	96.906009 
1021.000000	96.873662 
1020.000000	96.854759 
1019.000000	96.830482 
1018.000000	96.790656 
1017.000000	96.738824 
1016.000000	96.684673 
1015.000000	96.637245 
1014.000000	96.601987 
1013.000000	96.576819 
1012.000000	96.550431 
1011.000000	96.511233 
1010.000000	96.462321 
1009.000000	96.422439 
1008.000000	96.404343 
1007.000000	96.393475 
1006.000000	96.357010 
1005.000000	96.277840 
1004.000000	96.174334 
1003.000000	96.084127 
1002.000000	96.033864 
1001.000000	96.026516 
1000.000000	96.047750 
999.000000	 96.074739 
998.000000	 96.085665 
997.000000	 96.073559 
996.000000	 96.050251 
995.000000	 96.029187 
994.000000	 96.007400 
993.000000	 95.973027 
992.000000	 95.926700 
991.000000	 95.882820 
990.000000	 95.849434 
989.000000	 95.818901 
988.000000	 95.780524 
987.000000	 95.730838 
986.000000	 95.668000 
985.000000	 95.587550 
984.000000	 95.490484 
983.000000	 95.387550 
982.000000	 95.289360 
981.000000	 95.198576 
980.000000	 95.115802 
979.000000	 95.044351 
978.000000	 94.982783 
977.000000	 94.920602 
976.000000	 94.849330 
975.000000	 94.772910 
974.000000	 94.700392 
973.000000	 94.632914 
972.000000	 94.564963 
971.000000	 94.495232 
970.000000	 94.429617 
969.000000	 94.374777 
968.000000	 94.332791 
967.000000	 94.300400 
966.000000	 94.271003 
965.000000	 94.240399 
964.000000	 94.212647 
963.000000	 94.196672 
962.000000	 94.195005 
961.000000	 94.199824 
960.000000	 94.202337 
959.000000	 94.202241 
958.000000	 94.205792 
957.000000	 94.217740 
956.000000	 94.236522 
955.000000	 94.254446 
954.000000	 94.262666 
953.000000	 94.259649 
952.000000	 94.253309 
951.000000	 94.249592 
950.000000	 94.241051 
949.000000	 94.214678 
948.000000	 94.170160 
947.000000	 94.120221 
946.000000	 94.071032 
945.000000	 94.013126 
944.000000	 93.936810 
943.000000	 93.847731 
942.000000	 93.761190 
941.000000	 93.688308 
940.000000	 93.633474 
939.000000	 93.597362 
938.000000	 93.574709 
937.000000	 93.555117 
936.000000	 93.533577 
935.000000	 93.515861 
934.000000	 93.507523 
933.000000	 93.503120 
932.000000	 93.494172 
931.000000	 93.483789 
930.000000	 93.484304 
929.000000	 93.500498 
928.000000	 93.522000 
927.000000	 93.533879 
926.000000	 93.530872 
925.000000	 93.519380 
924.000000	 93.507540 
923.000000	 93.496050 
922.000000	 93.480591 
921.000000	 93.462608 
920.000000	 93.452616 
919.000000	 93.457969 
918.000000	 93.469989 
917.000000	 93.470052 
916.000000	 93.448637 
915.000000	 93.413338 
914.000000	 93.379084 
913.000000	 93.356642 
912.000000	 93.349806 
911.000000	 93.354743 
910.000000	 93.359779 
909.000000	 93.354239 
908.000000	 93.341341 
907.000000	 93.335565 
906.000000	 93.343633 
905.000000	 93.354473 
904.000000	 93.351885 
903.000000	 93.331559 
902.000000	 93.301762 
901.000000	 93.272630 
900.000000	 93.249628 
899.000000	 93.233715 
898.000000	 93.222930 
897.000000	 93.214130 
896.000000	 93.204801 
895.000000	 93.192111 
894.000000	 93.172332 
893.000000	 93.145169 
892.000000	 93.116605 
891.000000	 93.091567 
890.000000	 93.065293 
889.000000	 93.029162 
888.000000	 92.983799 
887.000000	 92.937840 
886.000000	 92.894483 
885.000000	 92.850013 
884.000000	 92.806936 
883.000000	 92.775476 
882.000000	 92.755081 
881.000000	 92.724777 
880.000000	 92.662460 
879.000000	 92.569834 
878.000000	 92.470312 
877.000000	 92.383608 
876.000000	 92.307891 
875.000000	 92.227064 
874.000000	 92.132942 
873.000000	 92.037665 
872.000000	 91.959597 
871.000000	 91.896308 
870.000000	 91.821922 
869.000000	 91.719455 
868.000000	 91.604939 
867.000000	 91.505238 
866.000000	 91.420603 
865.000000	 91.329426 
864.000000	 91.227369 
863.000000	 91.137932 
862.000000	 91.078218 
861.000000	 91.034863 
860.000000	 90.984187 
859.000000	 90.919622 
858.000000	 90.847945 
857.000000	 90.772613 
856.000000	 90.694634 
855.000000	 90.620405 
854.000000	 90.556252 
853.000000	 90.501313 
852.000000	 90.454128 
851.000000	 90.418618 
850.000000	 90.396330 
849.000000	 90.381877 
848.000000	 90.373923 
847.000000	 90.381354 
846.000000	 90.409966 
845.000000	 90.451441 
844.000000	 90.493517 
843.000000	 90.532285 
842.000000	 90.566088 
841.000000	 90.586029 
840.000000	 90.582619 
839.000000	 90.555505 
838.000000	 90.507718 
837.000000	 90.436887 
836.000000	 90.342635 
835.000000	 90.237668 
834.000000	 90.139804 
833.000000	 90.053852 
832.000000	 89.969766 
831.000000	 89.877947 
830.000000	 89.779903 
829.000000	 89.685092 
828.000000	 89.603049 
827.000000	 89.537277 
826.000000	 89.482477 
825.000000	 89.430011 
824.000000	 89.378706 
823.000000	 89.335892 
822.000000	 89.306160 
821.000000	 89.285639 
820.000000	 89.268020 
819.000000	 89.248524 
818.000000	 89.222791 
817.000000	 89.191486 
816.000000	 89.166705 
815.000000	 89.163641 
814.000000	 89.182928 
813.000000	 89.209801 
812.000000	 89.232050 
811.000000	 89.247764 
810.000000	 89.253089 
809.000000	 89.237057 
808.000000	 89.198376 
807.000000	 89.158193 
806.000000	 89.144473 
805.000000	 89.165103 
804.000000	 89.201621 
803.000000	 89.227172 
802.000000	 89.229000 
801.000000	 89.218189 
800.000000	 89.218943 
799.000000	 89.243737 
798.000000	 89.278903 
797.000000	 89.301470 
796.000000	 89.308994 
795.000000	 89.321873 
794.000000	 89.354608 
793.000000	 89.396910 
792.000000	 89.429183 
791.000000	 89.446539 
790.000000	 89.459638 
789.000000	 89.478370 
788.000000	 89.502284 
787.000000	 89.524125 
786.000000	 89.538856 
785.000000	 89.551745 
784.000000	 89.577533 
783.000000	 89.625156 
782.000000	 89.682363 
781.000000	 89.724230 
780.000000	 89.740892 
779.000000	 89.750222 
778.000000	 89.778556 
777.000000	 89.833297 
776.000000	 89.897633 
775.000000	 89.948077 
774.000000	 89.975453 
773.000000	 89.992921 
772.000000	 90.024103 
771.000000	 90.078358 
770.000000	 90.137887 
769.000000	 90.176437 
768.000000	 90.191557 
767.000000	 90.210513 
766.000000	 90.261272 
765.000000	 90.343248 
764.000000	 90.429746 
763.000000	 90.495178 
762.000000	 90.538506 
761.000000	 90.582755 
760.000000	 90.649843 
759.000000	 90.733414 
758.000000	 90.802914 
757.000000	 90.841109 
756.000000	 90.868430 
755.000000	 90.916664 
754.000000	 90.984927 
753.000000	 91.041433 
752.000000	 91.069858 
751.000000	 91.092413 
750.000000	 91.137794 
749.000000	 91.203025 
748.000000	 91.261404 
747.000000	 91.298517 
746.000000	 91.325828 
745.000000	 91.362419 
744.000000	 91.415300 
743.000000	 91.478143 
742.000000	 91.541589 
741.000000	 91.601671 
740.000000	 91.659291 
739.000000	 91.712140 
738.000000	 91.750803 
737.000000	 91.770014 
736.000000	 91.783627 
735.000000	 91.817878 
734.000000	 91.883920 
733.000000	 91.963746 
732.000000	 92.029576 
731.000000	 92.071832 
730.000000	 92.101253 
729.000000	 92.128913 
728.000000	 92.156397 
727.000000	 92.183478 
726.000000	 92.213017 
725.000000	 92.245838 
724.000000	 92.277121 
723.000000	 92.302759 
722.000000	 92.328889 
721.000000	 92.372368 
720.000000	 92.444963 
719.000000	 92.532851 
718.000000	 92.602888 
717.000000	 92.635597 
716.000000	 92.642557 
715.000000	 92.648817 
714.000000	 92.665650 
713.000000	 92.689752 
712.000000	 92.726208 
711.000000	 92.792420 
710.000000	 92.891318 
709.000000	 92.995370 
708.000000	 93.070173 
707.000000	 93.105777 
706.000000	 93.112685 
705.000000	 93.099654 
704.000000	 93.073857 
703.000000	 93.056200 
702.000000	 93.075753 
701.000000	 93.141434 
700.000000	 93.228865 
699.000000	 93.303590 
698.000000	 93.348783 
697.000000	 93.367544 
696.000000	 93.368934 
695.000000	 93.361301 
694.000000	 93.359303 
693.000000	 93.380847 
692.000000	 93.426966 
691.000000	 93.475636 
690.000000	 93.506112 
689.000000	 93.529972 
688.000000	 93.581109 
687.000000	 93.663976 
686.000000	 93.734922 
685.000000	 93.752552 
684.000000	 93.730299 
683.000000	 93.718421 
682.000000	 93.739651 
681.000000	 93.767474 
680.000000	 93.770706 
679.000000	 93.758654 
678.000000	 93.761606 
677.000000	 93.779535 
676.000000	 93.785551 
675.000000	 93.760245 
674.000000	 93.719915 
673.000000	 93.711612 
672.000000	 93.781224 
671.000000	 93.955751 
670.000000	 94.246657 
669.000000	 94.631783 
668.000000	 94.890214 
667.000000	 94.751739 
666.000000	 94.439867 
665.000000	 94.203866 
664.000000	 94.043981 
663.000000	 93.935425 
662.000000	 93.878291 
661.000000	 93.859704 
660.000000	 93.861910 
659.000000	 93.849823 
658.000000	 93.832462 
657.000000	 93.828999 
656.000000	 93.906514 
655.000000	 94.013705 
654.000000	 94.159912 
653.000000	 94.089732 
652.000000	 93.555570 
651.000000	 93.538215 
650.000000	 93.450943 

