PE IR                   SPECTRUM    ASCII       PEDS        1.60        
  -1
~SP.SP
18/03/14
13:47:13.00
18/03/14
13:47:13.00
pili

650.000000
4









SPECTRUM 100,CPU32 MAIN 00.02.8200 12-DECEMBER-2006 10:00:00
MIR TGS
MIR
OPTKBR
78890
0.200000

4.000000
STRONG
RATIO
SPECTRUM
MAGNITUDE
UNIVERSAL ATR
DOUBLE

COMBINED


0


#HDR
-1
-1
#GR
CM-1
%T
0.00002384185791015625
0.0
4000.000000
-1.000000
3351
8
99.164011
87.234026
#DATA
4000.000000	99.116257 
3999.000000	99.119568 
3998.000000	99.123370 
3997.000000	99.125044 
3996.000000	99.124889 
3995.000000	99.125915 
3994.000000	99.129718 
3993.000000	99.132934 
3992.000000	99.129062 
3991.000000	99.114469 
3990.000000	99.092990 
3989.000000	99.074470 
3988.000000	99.068010 
3987.000000	99.075713 
3986.000000	99.092089 
3985.000000	99.108436 
3984.000000	99.118070 
3983.000000	99.119012 
3982.000000	99.113887 
3981.000000	99.108074 
3980.000000	99.106519 
3979.000000	99.110584 
3978.000000	99.117264 
3977.000000	99.121605 
3976.000000	99.120341 
3975.000000	99.113630 
3974.000000	99.104200 
3973.000000	99.095349 
3972.000000	99.089117 
3971.000000	99.085363 
3970.000000	99.082252 
3969.000000	99.078515 
3968.000000	99.075677 
3967.000000	99.077559 
3966.000000	99.086878 
3965.000000	99.101821 
3964.000000	99.116187 
3963.000000	99.123637 
3962.000000	99.122834 
3961.000000	99.118305 
3960.000000	99.115553 
3959.000000	99.115531 
3958.000000	99.114236 
3957.000000	99.108105 
3956.000000	99.099170 
3955.000000	99.094198 
3954.000000	99.098715 
3953.000000	99.111770 
3952.000000	99.126356 
3951.000000	99.134840 
3950.000000	99.134552 
3949.000000	99.129147 
3948.000000	99.124547 
3947.000000	99.123340 
3946.000000	99.122769 
3945.000000	99.117611 
3944.000000	99.105501 
3943.000000	99.090302 
3942.000000	99.079551 
3941.000000	99.076939 
3940.000000	99.078392 
3939.000000	99.076912 
3938.000000	99.070309 
3937.000000	99.063217 
3936.000000	99.061611 
3935.000000	99.066416 
3934.000000	99.073984 
3933.000000	99.081364 
3932.000000	99.088840 
3931.000000	99.096089 
3930.000000	99.099170 
3929.000000	99.095024 
3928.000000	99.087300 
3927.000000	99.084483 
3926.000000	99.091000 
3925.000000	99.101466 
3924.000000	99.106068 
3923.000000	99.100140 
3922.000000	99.086950 
3921.000000	99.073758 
3920.000000	99.066256 
3919.000000	99.065281 
3918.000000	99.067102 
3917.000000	99.067758 
3916.000000	99.067040 
3915.000000	99.067633 
3914.000000	99.071101 
3913.000000	99.076822 
3912.000000	99.083425 
3911.000000	99.089792 
3910.000000	99.093765 
3909.000000	99.092381 
3908.000000	99.084516 
3907.000000	99.072438 
3906.000000	99.060421 
3905.000000	99.050965 
3904.000000	99.044482 
3903.000000	99.042142 
3902.000000	99.046361 
3901.000000	99.057779 
3900.000000	99.073235 
3899.000000	99.087206 
3898.000000	99.095115 
3897.000000	99.095502 
3896.000000	99.090804 
3895.000000	99.087319 
3894.000000	99.090644 
3893.000000	99.099239 
3892.000000	99.103799 
3891.000000	99.098534 
3890.000000	99.089498 
3889.000000	99.086272 
3888.000000	99.090826 
3887.000000	99.095596 
3886.000000	99.092104 
3885.000000	99.081581 
3884.000000	99.072374 
3883.000000	99.068590 
3882.000000	99.067209 
3881.000000	99.064314 
3880.000000	99.061317 
3879.000000	99.062502 
3878.000000	99.069405 
3877.000000	99.080758 
3876.000000	99.094155 
3875.000000	99.105453 
3874.000000	99.111407 
3873.000000	99.113199 
3872.000000	99.113226 
3871.000000	99.110555 
3870.000000	99.105438 
3869.000000	99.105408 
3868.000000	99.115750 
3867.000000	99.129371 
3866.000000	99.132626 
3865.000000	99.119957 
3864.000000	99.099766 
3863.000000	99.083893 
3862.000000	99.074775 
3861.000000	99.068970 
3860.000000	99.064389 
3859.000000	99.061533 
3858.000000	99.061221 
3857.000000	99.063948 
3856.000000	99.070930 
3855.000000	99.082794 
3854.000000	99.091360 
3853.000000	99.091316 
3852.000000	99.091051 
3851.000000	99.095825 
3850.000000	99.100708 
3849.000000	99.100999 
3848.000000	99.096623 
3847.000000	99.091752 
3846.000000	99.090864 
3845.000000	99.096746 
3844.000000	99.109804 
3843.000000	99.128127 
3842.000000	99.146751 
3841.000000	99.158308 
3840.000000	99.155812 
3839.000000	99.139857 
3838.000000	99.120694 
3837.000000	99.107984 
3836.000000	99.102222 
3835.000000	99.098768 
3834.000000	99.094957 
3833.000000	99.091674 
3832.000000	99.090792 
3831.000000	99.093318 
3830.000000	99.099201 
3829.000000	99.107613 
3828.000000	99.116023 
3827.000000	99.120645 
3826.000000	99.119872 
3825.000000	99.117328 
3824.000000	99.118516 
3823.000000	99.125081 
3822.000000	99.131350 
3821.000000	99.132898 
3820.000000	99.137315 
3819.000000	99.150832 
3818.000000	99.164011 
3817.000000	99.159386 
3816.000000	99.133594 
3815.000000	99.105388 
3814.000000	99.092135 
3813.000000	99.090966 
3812.000000	99.088534 
3811.000000	99.078586 
3810.000000	99.066574 
3809.000000	99.060520 
3808.000000	99.059840 
3807.000000	99.058076 
3806.000000	99.054614 
3805.000000	99.056175 
3804.000000	99.067072 
3803.000000	99.084336 
3802.000000	99.101257 
3801.000000	99.117006 
3800.000000	99.134707 
3799.000000	99.149410 
3798.000000	99.149905 
3797.000000	99.131298 
3796.000000	99.103216 
3795.000000	99.081947 
3794.000000	99.074719 
3793.000000	99.076758 
3792.000000	99.080464 
3791.000000	99.082563 
3790.000000	99.083828 
3789.000000	99.086154 
3788.000000	99.090921 
3787.000000	99.097353 
3786.000000	99.100808 
3785.000000	99.095012 
3784.000000	99.078263 
3783.000000	99.056261 
3782.000000	99.037395 
3781.000000	99.026749 
3780.000000	99.024097 
3779.000000	99.027887 
3778.000000	99.037624 
3777.000000	99.050808 
3776.000000	99.060643 
3775.000000	99.060478 
3774.000000	99.050516 
3773.000000	99.038762 
3772.000000	99.033973 
3771.000000	99.037525 
3770.000000	99.043270 
3769.000000	99.045356 
3768.000000	99.043402 
3767.000000	99.040754 
3766.000000	99.041711 
3765.000000	99.049672 
3764.000000	99.065140 
3763.000000	99.084477 
3762.000000	99.101002 
3761.000000	99.109257 
3760.000000	99.108331 
3759.000000	99.101760 
3758.000000	99.093635 
3757.000000	99.087196 
3756.000000	99.085467 
3755.000000	99.088688 
3754.000000	99.092419 
3753.000000	99.091579 
3752.000000	99.086774 
3751.000000	99.083316 
3750.000000	99.084622 
3749.000000	99.090301 
3748.000000	99.101773 
3747.000000	99.120227 
3746.000000	99.137555 
3745.000000	99.137934 
3744.000000	99.120318 
3743.000000	99.099888 
3742.000000	99.083335 
3741.000000	99.065778 
3740.000000	99.044611 
3739.000000	99.026839 
3738.000000	99.023244 
3737.000000	99.035768 
3736.000000	99.056431 
3735.000000	99.077516 
3734.000000	99.094632 
3733.000000	99.100249 
3732.000000	99.088077 
3731.000000	99.063276 
3730.000000	99.039489 
3729.000000	99.025792 
3728.000000	99.019468 
3727.000000	99.011094 
3726.000000	98.996765 
3725.000000	98.982507 
3724.000000	98.976450 
3723.000000	98.981177 
3722.000000	98.993311 
3721.000000	99.007745 
3720.000000	99.020167 
3719.000000	99.027606 
3718.000000	99.028161 
3717.000000	99.021619 
3716.000000	99.010509 
3715.000000	98.998927 
3714.000000	98.992242 
3713.000000	98.996846 
3712.000000	99.014695 
3711.000000	99.039845 
3710.000000	99.062531 
3709.000000	99.076067 
3708.000000	99.079341 
3707.000000	99.074741 
3706.000000	99.066113 
3705.000000	99.057186 
3704.000000	99.050113 
3703.000000	99.044881 
3702.000000	99.039837 
3701.000000	99.034356 
3700.000000	99.029330 
3699.000000	99.024457 
3698.000000	99.018014 
3697.000000	99.009997 
3696.000000	99.004726 
3695.000000	99.007864 
3694.000000	99.021148 
3693.000000	99.042070 
3692.000000	99.066303 
3691.000000	99.087852 
3690.000000	99.098852 
3689.000000	99.096811 
3688.000000	99.088986 
3687.000000	99.082970 
3686.000000	99.078696 
3685.000000	99.070762 
3684.000000	99.054953 
3683.000000	99.033719 
3682.000000	99.014989 
3681.000000	99.004668 
3680.000000	99.004263 
3679.000000	99.014416 
3678.000000	99.035101 
3677.000000	99.059090 
3676.000000	99.071041 
3675.000000	99.069060 
3674.000000	99.068150 
3673.000000	99.074876 
3672.000000	99.079398 
3671.000000	99.069816 
3670.000000	99.047221 
3669.000000	99.026937 
3668.000000	99.018655 
3667.000000	99.017413 
3666.000000	99.016393 
3665.000000	99.016319 
3664.000000	99.021904 
3663.000000	99.032931 
3662.000000	99.041085 
3661.000000	99.037482 
3660.000000	99.023231 
3659.000000	99.009870 
3658.000000	99.010036 
3657.000000	99.025898 
3656.000000	99.048636 
3655.000000	99.068320 
3654.000000	99.079567 
3653.000000	99.080009 
3652.000000	99.069071 
3651.000000	99.050828 
3650.000000	99.033807 
3649.000000	99.025826 
3648.000000	99.027967 
3647.000000	99.035579 
3646.000000	99.044196 
3645.000000	99.050846 
3644.000000	99.051646 
3643.000000	99.043274 
3642.000000	99.027618 
3641.000000	99.012494 
3640.000000	99.005589 
3639.000000	99.007464 
3638.000000	99.013055 
3637.000000	99.018026 
3636.000000	99.021664 
3635.000000	99.024954 
3634.000000	99.028765 
3633.000000	99.033961 
3632.000000	99.040088 
3631.000000	99.043522 
3630.000000	99.038813 
3629.000000	99.026567 
3628.000000	99.018257 
3627.000000	99.019350 
3626.000000	99.020991 
3625.000000	99.015140 
3624.000000	99.005127 
3623.000000	99.001873 
3622.000000	99.013064 
3621.000000	99.035425 
3620.000000	99.056301 
3619.000000	99.064197 
3618.000000	99.057948 
3617.000000	99.044105 
3616.000000	99.030108 
3615.000000	99.020435 
3614.000000	99.014197 
3613.000000	99.006318 
3612.000000	98.992837 
3611.000000	98.974801 
3610.000000	98.958435 
3609.000000	98.951896 
3608.000000	98.959776 
3607.000000	98.979186 
3606.000000	99.000789 
3605.000000	99.015045 
3604.000000	99.018588 
3603.000000	99.015884 
3602.000000	99.014815 
3601.000000	99.019364 
3600.000000	99.026937 
3599.000000	99.032221 
3598.000000	99.033043 
3597.000000	99.031813 
3596.000000	99.032215 
3595.000000	99.034359 
3594.000000	99.035030 
3593.000000	99.032020 
3592.000000	99.026624 
3591.000000	99.022027 
3590.000000	99.020138 
3589.000000	99.019226 
3588.000000	99.015659 
3587.000000	99.010432 
3586.000000	99.009454 
3585.000000	99.015188 
3584.000000	99.024505 
3583.000000	99.033313 
3582.000000	99.039779 
3581.000000	99.042953 
3580.000000	99.041766 
3579.000000	99.036477 
3578.000000	99.029745 
3577.000000	99.024385 
3576.000000	99.020275 
3575.000000	99.015599 
3574.000000	99.010690 
3573.000000	99.008752 
3572.000000	99.011395 
3571.000000	99.015403 
3570.000000	99.015569 
3569.000000	99.010497 
3568.000000	99.005216 
3567.000000	99.007182 
3566.000000	99.018674 
3565.000000	99.033239 
3564.000000	99.040950 
3563.000000	99.036123 
3562.000000	99.020887 
3561.000000	99.003647 
3560.000000	98.993514 
3559.000000	98.993568 
3558.000000	98.999054 
3557.000000	99.002960 
3556.000000	99.003052 
3555.000000	99.001950 
3554.000000	99.000754 
3553.000000	98.996001 
3552.000000	98.985968 
3551.000000	98.976800 
3550.000000	98.977875 
3549.000000	98.992075 
3548.000000	99.012984 
3547.000000	99.031140 
3546.000000	99.041449 
3545.000000	99.043921 
3544.000000	99.039374 
3543.000000	99.027639 
3542.000000	99.009477 
3541.000000	98.987889 
3540.000000	98.966798 
3539.000000	98.949288 
3538.000000	98.937595 
3537.000000	98.933666 
3536.000000	98.938621 
3535.000000	98.950903 
3534.000000	98.966207 
3533.000000	98.980092 
3532.000000	98.991299 
3531.000000	99.001926 
3530.000000	99.013690 
3529.000000	99.024222 
3528.000000	99.028321 
3527.000000	99.023096 
3526.000000	99.010869 
3525.000000	98.996865 
3524.000000	98.985434 
3523.000000	98.979173 
3522.000000	98.980309 
3521.000000	98.990089 
3520.000000	99.005592 
3519.000000	99.018615 
3518.000000	99.020760 
3517.000000	99.010754 
3516.000000	98.995538 
3515.000000	98.983224 
3514.000000	98.976428 
3513.000000	98.973015 
3512.000000	98.971268 
3511.000000	98.971802 
3510.000000	98.974999 
3509.000000	98.979290 
3508.000000	98.982923 
3507.000000	98.985390 
3506.000000	98.986094 
3505.000000	98.983088 
3504.000000	98.975038 
3503.000000	98.964130 
3502.000000	98.955598 
3501.000000	98.954158 
3500.000000	98.961352 
3499.000000	98.975296 
3498.000000	98.991619 
3497.000000	99.005502 
3496.000000	99.014183 
3495.000000	99.017411 
3494.000000	99.015570 
3493.000000	99.008783 
3492.000000	98.998502 
3491.000000	98.988089 
3490.000000	98.980229 
3489.000000	98.974689 
3488.000000	98.970365 
3487.000000	98.968505 
3486.000000	98.971446 
3485.000000	98.978359 
3484.000000	98.984904 
3483.000000	98.987830 
3482.000000	98.988389 
3481.000000	98.989831 
3480.000000	98.992781 
3479.000000	98.994836 
3478.000000	98.994336 
3477.000000	98.992856 
3476.000000	98.993281 
3475.000000	98.996112 
3474.000000	98.998557 
3473.000000	98.997786 
3472.000000	98.994386 
3471.000000	98.991539 
3470.000000	98.990647 
3469.000000	98.989330 
3468.000000	98.985006 
3467.000000	98.979690 
3466.000000	98.979371 
3465.000000	98.988162 
3464.000000	99.004124 
3463.000000	99.020532 
3462.000000	99.030240 
3461.000000	99.029549 
3460.000000	99.020577 
3459.000000	99.011079 
3458.000000	99.009570 
3457.000000	99.017549 
3456.000000	99.026893 
3455.000000	99.026819 
3454.000000	99.014354 
3453.000000	98.996726 
3452.000000	98.983513 
3451.000000	98.977754 
3450.000000	98.974974 
3449.000000	98.969918 
3448.000000	98.963218 
3447.000000	98.961598 
3446.000000	98.971427 
3445.000000	98.991974 
3444.000000	99.014723 
3443.000000	99.028437 
3442.000000	99.025742 
3441.000000	99.007316 
3440.000000	98.981268 
3439.000000	98.957887 
3438.000000	98.943039 
3437.000000	98.935255 
3436.000000	98.929485 
3435.000000	98.923366 
3434.000000	98.918677 
3433.000000	98.917092 
3432.000000	98.917193 
3431.000000	98.917478 
3430.000000	98.920378 
3429.000000	98.930256 
3428.000000	98.946671 
3427.000000	98.961755 
3426.000000	98.966626 
3425.000000	98.960513 
3424.000000	98.951940 
3423.000000	98.949625 
3422.000000	98.953097 
3421.000000	98.954737 
3420.000000	98.951428 
3419.000000	98.950466 
3418.000000	98.960719 
3417.000000	98.979506 
3416.000000	98.992537 
3415.000000	98.988370 
3414.000000	98.970942 
3413.000000	98.955735 
3412.000000	98.953872 
3411.000000	98.961715 
3410.000000	98.966203 
3409.000000	98.959112 
3408.000000	98.945473 
3407.000000	98.938665 
3406.000000	98.948050 
3405.000000	98.971581 
3404.000000	98.998980 
3403.000000	99.019954 
3402.000000	99.028997 
3401.000000	99.025101 
3400.000000	99.010711 
3399.000000	98.992104 
3398.000000	98.977887 
3397.000000	98.973512 
3396.000000	98.976296 
3395.000000	98.977302 
3394.000000	98.969732 
3393.000000	98.955949 
3392.000000	98.946355 
3391.000000	98.950850 
3390.000000	98.970632 
3389.000000	98.997141 
3388.000000	99.018231 
3387.000000	99.026052 
3386.000000	99.021081 
3385.000000	99.009890 
3384.000000	98.998644 
3383.000000	98.987631 
3382.000000	98.971914 
3381.000000	98.947998 
3380.000000	98.919877 
3379.000000	98.897607 
3378.000000	98.889179 
3377.000000	98.894452 
3376.000000	98.907258 
3375.000000	98.921854 
3374.000000	98.935439 
3373.000000	98.945487 
3372.000000	98.948511 
3371.000000	98.944184 
3370.000000	98.939238 
3369.000000	98.943212 
3368.000000	98.957930 
3367.000000	98.972831 
3366.000000	98.973852 
3365.000000	98.957986 
3364.000000	98.936988 
3363.000000	98.925303 
3362.000000	98.926148 
3361.000000	98.931738 
3360.000000	98.935385 
3359.000000	98.938602 
3358.000000	98.945139 
3357.000000	98.952590 
3356.000000	98.954290 
3355.000000	98.948003 
3354.000000	98.938382 
3353.000000	98.930663 
3352.000000	98.925840 
3351.000000	98.923420 
3350.000000	98.925724 
3349.000000	98.936394 
3348.000000	98.955286 
3347.000000	98.976746 
3346.000000	98.993260 
3345.000000	99.000247 
3344.000000	98.997827 
3343.000000	98.988957 
3342.000000	98.976293 
3341.000000	98.961186 
3340.000000	98.945933 
3339.000000	98.935811 
3338.000000	98.936460 
3337.000000	98.948257 
3336.000000	98.964681 
3335.000000	98.977450 
3334.000000	98.982291 
3333.000000	98.978799 
3332.000000	98.966890 
3331.000000	98.946786 
3330.000000	98.923086 
3329.000000	98.905960 
3328.000000	98.905102 
3327.000000	98.921288 
3326.000000	98.944524 
3325.000000	98.961209 
3324.000000	98.963671 
3323.000000	98.954000 
3322.000000	98.940607 
3321.000000	98.932101 
3320.000000	98.932677 
3319.000000	98.939956 
3318.000000	98.946133 
3317.000000	98.943639 
3316.000000	98.932349 
3315.000000	98.920839 
3314.000000	98.918497 
3313.000000	98.926258 
3312.000000	98.936310 
3311.000000	98.940294 
3310.000000	98.935987 
3309.000000	98.926478 
3308.000000	98.915861 
3307.000000	98.907174 
3306.000000	98.902615 
3305.000000	98.903672 
3304.000000	98.910837 
3303.000000	98.923060 
3302.000000	98.936418 
3301.000000	98.943886 
3300.000000	98.939763 
3299.000000	98.926421 
3298.000000	98.914583 
3297.000000	98.913915 
3296.000000	98.923608 
3295.000000	98.934378 
3294.000000	98.939283 
3293.000000	98.939890 
3292.000000	98.941314 
3291.000000	98.943796 
3290.000000	98.941700 
3289.000000	98.930647 
3288.000000	98.913972 
3287.000000	98.901360 
3286.000000	98.900926 
3285.000000	98.912241 
3284.000000	98.926480 
3283.000000	98.933281 
3282.000000	98.928095 
3281.000000	98.914089 
3280.000000	98.898318 
3279.000000	98.886801 
3278.000000	98.882503 
3277.000000	98.885862 
3276.000000	98.895332 
3275.000000	98.907332 
3274.000000	98.917414 
3273.000000	98.923208 
3272.000000	98.926007 
3271.000000	98.928149 
3270.000000	98.928936 
3269.000000	98.925068 
3268.000000	98.915900 
3267.000000	98.906209 
3266.000000	98.901692 
3265.000000	98.902928 
3264.000000	98.906066 
3263.000000	98.908827 
3262.000000	98.912822 
3261.000000	98.919590 
3260.000000	98.927327 
3259.000000	98.933028 
3258.000000	98.935859 
3257.000000	98.936669 
3256.000000	98.935859 
3255.000000	98.933654 
3254.000000	98.931124 
3253.000000	98.928681 
3252.000000	98.924433 
3251.000000	98.916389 
3250.000000	98.906079 
3249.000000	98.897641 
3248.000000	98.892877 
3247.000000	98.889310 
3246.000000	98.884363 
3245.000000	98.880110 
3244.000000	98.882063 
3243.000000	98.893165 
3242.000000	98.910073 
3241.000000	98.925881 
3240.000000	98.936077 
3239.000000	98.941076 
3238.000000	98.942632 
3237.000000	98.939152 
3236.000000	98.927246 
3235.000000	98.908690 
3234.000000	98.893064 
3233.000000	98.890078 
3232.000000	98.899352 
3231.000000	98.910559 
3230.000000	98.914749 
3229.000000	98.913577 
3228.000000	98.915752 
3227.000000	98.925805 
3226.000000	98.938601 
3225.000000	98.944729 
3224.000000	98.939352 
3223.000000	98.925300 
3222.000000	98.909151 
3221.000000	98.895866 
3220.000000	98.886729 
3219.000000	98.880981 
3218.000000	98.878784 
3217.000000	98.882856 
3216.000000	98.896967 
3215.000000	98.921547 
3214.000000	98.950115 
3213.000000	98.971384 
3212.000000	98.976902 
3211.000000	98.967203 
3210.000000	98.950186 
3209.000000	98.934149 
3208.000000	98.923357 
3207.000000	98.919027 
3206.000000	98.921025 
3205.000000	98.926990 
3204.000000	98.931992 
3203.000000	98.931682 
3202.000000	98.925477 
3201.000000	98.915755 
3200.000000	98.905361 
3199.000000	98.897583 
3198.000000	98.896663 
3197.000000	98.904690 
3196.000000	98.917785 
3195.000000	98.928505 
3194.000000	98.933334 
3193.000000	98.935832 
3192.000000	98.941533 
3191.000000	98.951919 
3190.000000	98.964614 
3189.000000	98.976818 
3188.000000	98.985477 
3187.000000	98.985992 
3186.000000	98.975485 
3185.000000	98.958656 
3184.000000	98.946719 
3183.000000	98.947108 
3182.000000	98.955127 
3181.000000	98.958385 
3180.000000	98.949830 
3179.000000	98.934648 
3178.000000	98.923587 
3177.000000	98.921253 
3176.000000	98.922790 
3175.000000	98.921067 
3174.000000	98.914486 
3173.000000	98.906986 
3172.000000	98.902489 
3171.000000	98.901593 
3170.000000	98.903587 
3169.000000	98.909314 
3168.000000	98.919988 
3167.000000	98.933495 
3166.000000	98.943908 
3165.000000	98.946125 
3164.000000	98.940588 
3163.000000	98.932440 
3162.000000	98.926476 
3161.000000	98.924344 
3160.000000	98.926423 
3159.000000	98.933558 
3158.000000	98.944891 
3157.000000	98.955660 
3156.000000	98.960169 
3155.000000	98.957003 
3154.000000	98.949146 
3153.000000	98.939023 
3152.000000	98.926219 
3151.000000	98.911052 
3150.000000	98.897547 
3149.000000	98.890350 
3148.000000	98.889788 
3147.000000	98.892056 
3146.000000	98.893874 
3145.000000	98.895445 
3144.000000	98.899219 
3143.000000	98.907068 
3142.000000	98.918242 
3141.000000	98.928588 
3140.000000	98.932270 
3139.000000	98.926518 
3138.000000	98.915551 
3137.000000	98.908159 
3136.000000	98.909835 
3135.000000	98.917660 
3134.000000	98.923957 
3133.000000	98.924824 
3132.000000	98.923954 
3131.000000	98.927584 
3130.000000	98.936604 
3129.000000	98.944853 
3128.000000	98.945311 
3127.000000	98.937167 
3126.000000	98.926316 
3125.000000	98.919862 
3124.000000	98.921076 
3123.000000	98.928590 
3122.000000	98.938291 
3121.000000	98.945855 
3120.000000	98.949277 
3119.000000	98.949605 
3118.000000	98.948252 
3117.000000	98.944160 
3116.000000	98.936003 
3115.000000	98.927105 
3114.000000	98.924253 
3113.000000	98.929345 
3112.000000	98.935296 
3111.000000	98.933828 
3110.000000	98.925617 
3109.000000	98.918831 
3108.000000	98.918510 
3107.000000	98.921746 
3106.000000	98.923969 
3105.000000	98.925684 
3104.000000	98.930324 
3103.000000	98.937869 
3102.000000	98.943599 
3101.000000	98.943103 
3100.000000	98.937010 
3099.000000	98.930542 
3098.000000	98.928874 
3097.000000	98.932544 
3096.000000	98.936984 
3095.000000	98.937165 
3094.000000	98.932915 
3093.000000	98.928738 
3092.000000	98.928420 
3091.000000	98.931172 
3090.000000	98.933535 
3089.000000	98.933327 
3088.000000	98.930504 
3087.000000	98.925891 
3086.000000	98.921354 
3085.000000	98.920500 
3084.000000	98.926197 
3083.000000	98.936324 
3082.000000	98.943830 
3081.000000	98.942829 
3080.000000	98.934115 
3079.000000	98.923507 
3078.000000	98.915629 
3077.000000	98.910925 
3076.000000	98.908369 
3075.000000	98.908527 
3074.000000	98.912509 
3073.000000	98.919554 
3072.000000	98.927866 
3071.000000	98.937411 
3070.000000	98.949438 
3069.000000	98.962612 
3068.000000	98.971787 
3067.000000	98.972565 
3066.000000	98.966214 
3065.000000	98.958255 
3064.000000	98.952324 
3063.000000	98.947203 
3062.000000	98.940380 
3061.000000	98.932934 
3060.000000	98.929418 
3059.000000	98.933064 
3058.000000	98.942189 
3057.000000	98.951744 
3056.000000	98.957963 
3055.000000	98.961004 
3054.000000	98.963300 
3053.000000	98.966360 
3052.000000	98.969743 
3051.000000	98.972537 
3050.000000	98.974560 
3049.000000	98.975616 
3048.000000	98.974242 
3047.000000	98.968166 
3046.000000	98.956446 
3045.000000	98.941084 
3044.000000	98.926252 
3043.000000	98.915595 
3042.000000	98.910070 
3041.000000	98.908405 
3040.000000	98.909513 
3039.000000	98.913879 
3038.000000	98.922218 
3037.000000	98.933231 
3036.000000	98.943420 
3035.000000	98.949186 
3034.000000	98.948979 
3033.000000	98.944073 
3032.000000	98.938147 
3031.000000	98.935708 
3030.000000	98.939269 
3029.000000	98.947169 
3028.000000	98.954624 
3027.000000	98.957335 
3026.000000	98.954073 
3025.000000	98.946441 
3024.000000	98.937650 
3023.000000	98.931811 
3022.000000	98.932529 
3021.000000	98.940342 
3020.000000	98.951566 
3019.000000	98.960526 
3018.000000	98.963241 
3017.000000	98.959553 
3016.000000	98.952981 
3015.000000	98.948765 
3014.000000	98.950277 
3013.000000	98.955764 
3012.000000	98.959464 
3011.000000	98.957436 
3010.000000	98.952008 
3009.000000	98.949106 
3008.000000	98.951590 
3007.000000	98.956526 
3006.000000	98.958893 
3005.000000	98.956457 
3004.000000	98.950637 
3003.000000	98.944058 
3002.000000	98.938466 
3001.000000	98.934438 
3000.000000	98.931768 
2999.000000	98.929590 
2998.000000	98.926597 
2997.000000	98.921909 
2996.000000	98.916163 
2995.000000	98.911681 
2994.000000	98.911121 
2993.000000	98.915553 
2992.000000	98.923727 
2991.000000	98.933070 
2990.000000	98.941242 
2989.000000	98.947101 
2988.000000	98.950846 
2987.000000	98.953433 
2986.000000	98.955555 
2985.000000	98.957111 
2984.000000	98.957693 
2983.000000	98.956921 
2982.000000	98.953729 
2981.000000	98.946511 
2980.000000	98.935909 
2979.000000	98.927030 
2978.000000	98.926022 
2977.000000	98.933246 
2976.000000	98.941873 
2975.000000	98.944804 
2974.000000	98.941488 
2973.000000	98.936480 
2972.000000	98.933419 
2971.000000	98.932971 
2970.000000	98.934925 
2969.000000	98.938341 
2968.000000	98.939544 
2967.000000	98.933820 
2966.000000	98.921047 
2965.000000	98.907371 
2964.000000	98.899309 
2963.000000	98.897470 
2962.000000	98.897678 
2961.000000	98.897270 
2960.000000	98.898211 
2959.000000	98.903924 
2958.000000	98.914446 
2957.000000	98.925559 
2956.000000	98.932572 
2955.000000	98.934344 
2954.000000	98.933035 
2953.000000	98.929982 
2952.000000	98.923240 
2951.000000	98.910493 
2950.000000	98.893787 
2949.000000	98.879707 
2948.000000	98.874499 
2947.000000	98.879719 
2946.000000	98.892046 
2945.000000	98.905851 
2944.000000	98.916089 
2943.000000	98.920643 
2942.000000	98.920488 
2941.000000	98.916501 
2940.000000	98.906545 
2939.000000	98.888057 
2938.000000	98.863808 
2937.000000	98.841978 
2936.000000	98.828708 
2935.000000	98.822798 
2934.000000	98.819815 
2933.000000	98.818844 
2932.000000	98.821875 
2931.000000	98.828148 
2930.000000	98.833781 
2929.000000	98.837815 
2928.000000	98.844649 
2927.000000	98.857665 
2926.000000	98.872456 
2925.000000	98.879502 
2924.000000	98.873762 
2923.000000	98.859824 
2922.000000	98.847208 
2921.000000	98.841765 
2920.000000	98.842257 
2919.000000	98.844147 
2918.000000	98.845134 
2917.000000	98.846431 
2916.000000	98.849507 
2915.000000	98.853267 
2914.000000	98.855537 
2913.000000	98.856700 
2912.000000	98.859939 
2911.000000	98.866443 
2910.000000	98.871237 
2909.000000	98.866245 
2908.000000	98.849221 
2907.000000	98.828588 
2906.000000	98.817305 
2905.000000	98.821337 
2904.000000	98.835582 
2903.000000	98.850915 
2902.000000	98.862886 
2901.000000	98.871057 
2900.000000	98.873401 
2899.000000	98.866385 
2898.000000	98.851413 
2897.000000	98.837450 
2896.000000	98.834201 
2895.000000	98.844028 
2894.000000	98.862055 
2893.000000	98.882040 
2892.000000	98.899491 
2891.000000	98.910728 
2890.000000	98.912930 
2889.000000	98.906372 
2888.000000	98.894870 
2887.000000	98.883202 
2886.000000	98.875002 
2885.000000	98.872378 
2884.000000	98.875158 
2883.000000	98.880010 
2882.000000	98.882546 
2881.000000	98.881677 
2880.000000	98.880629 
2879.000000	98.882987 
2878.000000	98.889113 
2877.000000	98.896970 
2876.000000	98.904352 
2875.000000	98.908868 
2874.000000	98.907795 
2873.000000	98.900608 
2872.000000	98.890962 
2871.000000	98.883869 
2870.000000	98.880837 
2869.000000	98.879400 
2868.000000	98.877209 
2867.000000	98.874590 
2866.000000	98.872737 
2865.000000	98.871182 
2864.000000	98.868100 
2863.000000	98.862296 
2862.000000	98.854379 
2861.000000	98.846609 
2860.000000	98.841699 
2859.000000	98.840982 
2858.000000	98.843683 
2857.000000	98.848567 
2856.000000	98.855502 
2855.000000	98.863764 
2854.000000	98.869460 
2853.000000	98.867554 
2852.000000	98.857666 
2851.000000	98.846069 
2850.000000	98.840429 
2849.000000	98.843653 
2848.000000	98.853588 
2847.000000	98.866578 
2846.000000	98.879097 
2845.000000	98.887285 
2844.000000	98.888169 
2843.000000	98.882136 
2842.000000	98.872939 
2841.000000	98.865192 
2840.000000	98.862843 
2839.000000	98.868943 
2838.000000	98.883800 
2837.000000	98.902311 
2836.000000	98.915675 
2835.000000	98.918193 
2834.000000	98.912084 
2833.000000	98.904456 
2832.000000	98.900212 
2831.000000	98.899158 
2830.000000	98.899205 
2829.000000	98.900103 
2828.000000	98.903240 
2827.000000	98.909183 
2826.000000	98.916785 
2825.000000	98.924242 
2824.000000	98.929808 
2823.000000	98.931514 
2822.000000	98.927557 
2821.000000	98.918027 
2820.000000	98.905852 
2819.000000	98.894999 
2818.000000	98.887476 
2817.000000	98.882507 
2816.000000	98.878627 
2815.000000	98.875894 
2814.000000	98.875729 
2813.000000	98.879022 
2812.000000	98.884655 
2811.000000	98.889853 
2810.000000	98.892407 
2809.000000	98.893349 
2808.000000	98.896932 
2807.000000	98.906320 
2806.000000	98.918840 
2805.000000	98.927160 
2804.000000	98.926399 
2803.000000	98.918888 
2802.000000	98.910944 
2801.000000	98.906388 
2800.000000	98.905014 
2799.000000	98.905943 
2798.000000	98.909430 
2797.000000	98.915170 
2796.000000	98.921193 
2795.000000	98.925292 
2794.000000	98.925953 
2793.000000	98.921604 
2792.000000	98.911171 
2791.000000	98.896609 
2790.000000	98.883254 
2789.000000	98.876136 
2788.000000	98.876651 
2787.000000	98.883423 
2786.000000	98.894576 
2785.000000	98.907257 
2784.000000	98.916199 
2783.000000	98.915920 
2782.000000	98.905922 
2781.000000	98.892858 
2780.000000	98.886207 
2779.000000	98.890892 
2778.000000	98.903351 
2777.000000	98.914596 
2776.000000	98.917459 
2775.000000	98.911518 
2774.000000	98.901634 
2773.000000	98.892921 
2772.000000	98.888026 
2771.000000	98.887833 
2770.000000	98.891838 
2769.000000	98.897060 
2768.000000	98.899260 
2767.000000	98.897487 
2766.000000	98.896149 
2765.000000	98.900378 
2764.000000	98.909750 
2763.000000	98.918399 
2762.000000	98.921207 
2761.000000	98.918424 
2760.000000	98.914585 
2759.000000	98.914640 
2758.000000	98.920982 
2757.000000	98.932062 
2756.000000	98.942777 
2755.000000	98.947589 
2754.000000	98.944591 
2753.000000	98.936402 
2752.000000	98.927040 
2751.000000	98.918782 
2750.000000	98.912315 
2749.000000	98.908354 
2748.000000	98.907567 
2747.000000	98.909158 
2746.000000	98.910817 
2745.000000	98.910664 
2744.000000	98.909015 
2743.000000	98.907926 
2742.000000	98.908926 
2741.000000	98.911208 
2740.000000	98.912268 
2739.000000	98.910486 
2738.000000	98.906711 
2737.000000	98.902905 
2736.000000	98.899674 
2735.000000	98.896062 
2734.000000	98.891707 
2733.000000	98.888047 
2732.000000	98.886776 
2731.000000	98.887806 
2730.000000	98.889376 
2729.000000	98.889719 
2728.000000	98.888162 
2727.000000	98.885238 
2726.000000	98.882645 
2725.000000	98.882668 
2724.000000	98.886370 
2723.000000	98.891978 
2722.000000	98.895995 
2721.000000	98.896488 
2720.000000	98.894768 
2719.000000	98.893390 
2718.000000	98.893369 
2717.000000	98.894417 
2716.000000	98.897106 
2715.000000	98.902577 
2714.000000	98.909305 
2713.000000	98.912187 
2712.000000	98.907256 
2711.000000	98.897222 
2710.000000	98.890333 
2709.000000	98.892848 
2708.000000	98.903580 
2707.000000	98.916153 
2706.000000	98.925312 
2705.000000	98.930091 
2704.000000	98.932114 
2703.000000	98.932789 
2702.000000	98.932333 
2701.000000	98.930291 
2700.000000	98.926403 
2699.000000	98.921372 
2698.000000	98.916801 
2697.000000	98.913887 
2696.000000	98.912127 
2695.000000	98.909761 
2694.000000	98.905483 
2693.000000	98.899382 
2692.000000	98.892628 
2691.000000	98.886959 
2690.000000	98.884165 
2689.000000	98.884882 
2688.000000	98.887615 
2687.000000	98.889814 
2686.000000	98.890315 
2685.000000	98.890084 
2684.000000	98.890405 
2683.000000	98.891252 
2682.000000	98.891917 
2681.000000	98.892392 
2680.000000	98.893377 
2679.000000	98.895513 
2678.000000	98.899131 
2677.000000	98.903966 
2676.000000	98.908324 
2675.000000	98.909400 
2674.000000	98.905914 
2673.000000	98.900335 
2672.000000	98.897285 
2671.000000	98.899474 
2670.000000	98.905714 
2669.000000	98.912479 
2668.000000	98.916270 
2667.000000	98.915025 
2666.000000	98.909474 
2665.000000	98.903910 
2664.000000	98.903621 
2663.000000	98.909723 
2662.000000	98.917211 
2661.000000	98.919622 
2660.000000	98.915097 
2659.000000	98.906538 
2658.000000	98.896597 
2657.000000	98.885011 
2656.000000	98.871554 
2655.000000	98.859446 
2654.000000	98.853654 
2653.000000	98.855791 
2652.000000	98.861831 
2651.000000	98.865473 
2650.000000	98.863702 
2649.000000	98.858884 
2648.000000	98.855492 
2647.000000	98.855365 
2646.000000	98.856965 
2645.000000	98.858927 
2644.000000	98.862297 
2643.000000	98.867941 
2642.000000	98.873338 
2641.000000	98.874413 
2640.000000	98.870320 
2639.000000	98.864324 
2638.000000	98.860136 
2637.000000	98.859470 
2636.000000	98.862798 
2635.000000	98.869198 
2634.000000	98.874720 
2633.000000	98.874594 
2632.000000	98.869365 
2631.000000	98.866104 
2630.000000	98.870651 
2629.000000	98.880312 
2628.000000	98.886637 
2627.000000	98.883545 
2626.000000	98.870228 
2625.000000	98.848968 
2624.000000	98.825076 
2623.000000	98.807963 
2622.000000	98.806300 
2621.000000	98.819716 
2620.000000	98.838375 
2619.000000	98.852432 
2618.000000	98.859579 
2617.000000	98.862495 
2616.000000	98.862700 
2615.000000	98.859868 
2614.000000	98.854863 
2613.000000	98.850001 
2612.000000	98.846694 
2611.000000	98.845011 
2610.000000	98.845372 
2609.000000	98.848729 
2608.000000	98.854690 
2607.000000	98.860696 
2606.000000	98.863740 
2605.000000	98.862845 
2604.000000	98.859832 
2603.000000	98.857614 
2602.000000	98.857439 
2601.000000	98.857820 
2600.000000	98.856177 
2599.000000	98.851078 
2598.000000	98.842882 
2597.000000	98.833707 
2596.000000	98.827544 
2595.000000	98.828354 
2594.000000	98.835742 
2593.000000	98.843773 
2592.000000	98.846730 
2591.000000	98.845165 
2590.000000	98.843405 
2589.000000	98.842360 
2588.000000	98.839099 
2587.000000	98.833493 
2586.000000	98.830202 
2585.000000	98.832119 
2584.000000	98.835929 
2583.000000	98.837015 
2582.000000	98.835773 
2581.000000	98.836192 
2580.000000	98.840417 
2579.000000	98.847193 
2578.000000	98.853475 
2577.000000	98.855133 
2576.000000	98.848485 
2575.000000	98.834340 
2574.000000	98.818875 
2573.000000	98.807601 
2572.000000	98.800186 
2571.000000	98.794485 
2570.000000	98.793642 
2569.000000	98.804003 
2568.000000	98.825215 
2567.000000	98.846503 
2566.000000	98.855395 
2565.000000	98.849251 
2564.000000	98.837485 
2563.000000	98.833217 
2562.000000	98.842432 
2561.000000	98.859485 
2560.000000	98.872458 
2559.000000	98.873464 
2558.000000	98.863762 
2557.000000	98.849320 
2556.000000	98.833997 
2555.000000	98.818955 
2554.000000	98.806227 
2553.000000	98.798605 
2552.000000	98.796113 
2551.000000	98.796412 
2550.000000	98.799576 
2549.000000	98.808774 
2548.000000	98.823862 
2547.000000	98.837052 
2546.000000	98.838911 
2545.000000	98.828777 
2544.000000	98.816293 
2543.000000	98.811163 
2542.000000	98.813068 
2541.000000	98.813894 
2540.000000	98.809383 
2539.000000	98.805515 
2538.000000	98.811301 
2537.000000	98.827001 
2536.000000	98.842837 
2535.000000	98.849692 
2534.000000	98.848093 
2533.000000	98.845254 
2532.000000	98.845820 
2531.000000	98.847919 
2530.000000	98.846873 
2529.000000	98.840299 
2528.000000	98.830126 
2527.000000	98.821590 
2526.000000	98.819918 
2525.000000	98.826145 
2524.000000	98.836149 
2523.000000	98.845042 
2522.000000	98.851999 
2521.000000	98.859246 
2520.000000	98.866971 
2519.000000	98.871594 
2518.000000	98.869717 
2517.000000	98.862312 
2516.000000	98.854205 
2515.000000	98.850136 
2514.000000	98.851451 
2513.000000	98.855342 
2512.000000	98.856385 
2511.000000	98.849617 
2510.000000	98.834106 
2509.000000	98.815242 
2508.000000	98.803345 
2507.000000	98.807057 
2506.000000	98.824564 
2505.000000	98.841439 
2504.000000	98.841444 
2503.000000	98.822584 
2502.000000	98.800853 
2501.000000	98.795312 
2500.000000	98.809651 
2499.000000	98.830095 
2498.000000	98.840602 
2497.000000	98.837775 
2496.000000	98.831265 
2495.000000	98.832392 
2494.000000	98.843507 
2493.000000	98.856956 
2492.000000	98.862956 
2491.000000	98.858429 
2490.000000	98.848406 
2489.000000	98.839523 
2488.000000	98.834021 
2487.000000	98.831001 
2486.000000	98.830947 
2485.000000	98.835582 
2484.000000	98.843686 
2483.000000	98.850606 
2482.000000	98.853411 
2481.000000	98.854693 
2480.000000	98.859818 
2479.000000	98.871158 
2478.000000	98.885497 
2477.000000	98.895919 
2476.000000	98.895814 
2475.000000	98.882579 
2474.000000	98.859065 
2473.000000	98.831875 
2472.000000	98.808475 
2471.000000	98.795956 
2470.000000	98.800148 
2469.000000	98.821510 
2468.000000	98.850278 
2467.000000	98.869214 
2466.000000	98.865590 
2465.000000	98.841534 
2464.000000	98.811314 
2463.000000	98.788806 
2462.000000	98.778883 
2461.000000	98.779247 
2460.000000	98.785945 
2459.000000	98.794795 
2458.000000	98.800638 
2457.000000	98.799985 
2456.000000	98.795421 
2455.000000	98.794687 
2454.000000	98.803246 
2453.000000	98.818228 
2452.000000	98.830574 
2451.000000	98.832730 
2450.000000	98.823764 
2449.000000	98.808227 
2448.000000	98.791831 
2447.000000	98.778326 
2446.000000	98.768964 
2445.000000	98.763487 
2444.000000	98.761211 
2443.000000	98.761700 
2442.000000	98.765467 
2441.000000	98.774668 
2440.000000	98.791930 
2439.000000	98.816278 
2438.000000	98.840089 
2437.000000	98.853012 
2436.000000	98.851129 
2435.000000	98.840586 
2434.000000	98.829824 
2433.000000	98.819912 
2432.000000	98.806074 
2431.000000	98.788419 
2430.000000	98.776733 
2429.000000	98.781863 
2428.000000	98.803849 
2427.000000	98.830654 
2426.000000	98.848191 
2425.000000	98.850595 
2424.000000	98.841620 
2423.000000	98.827895 
2422.000000	98.812377 
2421.000000	98.795113 
2420.000000	98.779262 
2419.000000	98.772650 
2418.000000	98.780022 
2417.000000	98.794874 
2416.000000	98.803397 
2415.000000	98.798715 
2414.000000	98.789098 
2413.000000	98.789999 
2412.000000	98.808650 
2411.000000	98.837307 
2410.000000	98.860295 
2409.000000	98.866818 
2408.000000	98.858861 
2407.000000	98.848661 
2406.000000	98.848012 
2405.000000	98.858216 
2404.000000	98.869695 
2403.000000	98.871276 
2402.000000	98.859645 
2401.000000	98.840622 
2400.000000	98.823375 
2399.000000	98.814308 
2398.000000	98.814683 
2397.000000	98.821522 
2396.000000	98.829911 
2395.000000	98.835476 
2394.000000	98.836307 
2393.000000	98.834020 
2392.000000	98.832991 
2391.000000	98.836628 
2390.000000	98.842750 
2389.000000	98.843676 
2388.000000	98.832895 
2387.000000	98.811224 
2386.000000	98.785037 
2385.000000	98.759950 
2384.000000	98.739134 
2383.000000	98.726698 
2382.000000	98.727314 
2381.000000	98.739830 
2380.000000	98.754879 
2379.000000	98.763070 
2378.000000	98.763772 
2377.000000	98.762151 
2376.000000	98.760147 
2375.000000	98.755975 
2374.000000	98.751115 
2373.000000	98.749857 
2372.000000	98.749962 
2371.000000	98.741200 
2370.000000	98.718003 
2369.000000	98.688979 
2368.000000	98.669242 
2367.000000	98.666230 
2366.000000	98.676321 
2365.000000	98.691966 
2364.000000	98.709594 
2363.000000	98.732051 
2362.000000	98.762938 
2361.000000	98.796927 
2360.000000	98.816575 
2359.000000	98.805842 
2358.000000	98.767920 
2357.000000	98.722956 
2356.000000	98.690075 
2355.000000	98.676144 
2354.000000	98.678144 
2353.000000	98.687785 
2352.000000	98.694287 
2351.000000	98.691865 
2350.000000	98.684620 
2349.000000	98.679942 
2348.000000	98.677961 
2347.000000	98.670623 
2346.000000	98.655443 
2345.000000	98.641523 
2344.000000	98.636230 
2343.000000	98.640201 
2342.000000	98.658402 
2341.000000	98.696579 
2340.000000	98.743756 
2339.000000	98.774276 
2338.000000	98.769554 
2337.000000	98.733462 
2336.000000	98.686850 
2335.000000	98.652039 
2334.000000	98.640052 
2333.000000	98.644906 
2332.000000	98.647252 
2331.000000	98.632293 
2330.000000	98.605380 
2329.000000	98.585340 
2328.000000	98.582807 
2327.000000	98.591149 
2326.000000	98.599311 
2325.000000	98.604126 
2324.000000	98.610180 
2323.000000	98.620064 
2322.000000	98.630343 
2321.000000	98.638610 
2320.000000	98.647822 
2319.000000	98.660991 
2318.000000	98.674293 
2317.000000	98.681203 
2316.000000	98.680226 
2315.000000	98.675613 
2314.000000	98.670154 
2313.000000	98.661878 
2312.000000	98.649644 
2311.000000	98.638699 
2310.000000	98.635710 
2309.000000	98.639440 
2308.000000	98.641005 
2307.000000	98.633212 
2306.000000	98.616730 
2305.000000	98.597523 
2304.000000	98.582774 
2303.000000	98.580020 
2302.000000	98.594982 
2301.000000	98.625676 
2300.000000	98.659930 
2299.000000	98.682718 
2298.000000	98.687432 
2297.000000	98.680159 
2296.000000	98.673989 
2295.000000	98.678881 
2294.000000	98.694616 
2293.000000	98.711296 
2292.000000	98.717940 
2291.000000	98.712186 
2290.000000	98.701615 
2289.000000	98.695017 
2288.000000	98.693491 
2287.000000	98.691126 
2286.000000	98.683643 
2285.000000	98.674678 
2284.000000	98.672715 
2283.000000	98.681450 
2282.000000	98.693684 
2281.000000	98.697096 
2280.000000	98.687666 
2279.000000	98.674575 
2278.000000	98.668331 
2277.000000	98.667533 
2276.000000	98.663775 
2275.000000	98.657408 
2274.000000	98.658191 
2273.000000	98.668449 
2272.000000	98.676717 
2271.000000	98.674549 
2270.000000	98.669851 
2269.000000	98.673280 
2268.000000	98.678618 
2267.000000	98.670515 
2266.000000	98.649951 
2265.000000	98.637587 
2264.000000	98.647349 
2263.000000	98.667578 
2262.000000	98.675599 
2261.000000	98.664537 
2260.000000	98.648129 
2259.000000	98.641675 
2258.000000	98.645492 
2257.000000	98.648573 
2256.000000	98.644612 
2255.000000	98.640828 
2254.000000	98.650329 
2253.000000	98.677910 
2252.000000	98.716073 
2251.000000	98.753940 
2250.000000	98.784821 
2249.000000	98.803045 
2248.000000	98.800677 
2247.000000	98.775251 
2246.000000	98.738855 
2245.000000	98.711009 
2244.000000	98.699735 
2243.000000	98.696165 
2242.000000	98.690878 
2241.000000	98.688172 
2240.000000	98.696733 
2239.000000	98.710337 
2238.000000	98.708907 
2237.000000	98.682433 
2236.000000	98.646786 
2235.000000	98.628832 
2234.000000	98.638578 
2233.000000	98.662301 
2232.000000	98.681127 
2231.000000	98.687109 
2230.000000	98.679011 
2229.000000	98.654842 
2228.000000	98.620253 
2227.000000	98.597396 
2226.000000	98.608747 
2225.000000	98.648337 
2224.000000	98.681012 
2223.000000	98.678079 
2222.000000	98.646992 
2221.000000	98.620127 
2220.000000	98.620913 
2219.000000	98.647734 
2218.000000	98.684058 
2217.000000	98.712915 
2216.000000	98.722572 
2215.000000	98.708215 
2214.000000	98.674132 
2213.000000	98.633793 
2212.000000	98.605289 
2211.000000	98.603437 
2210.000000	98.631770 
2209.000000	98.680166 
2208.000000	98.732266 
2207.000000	98.774618 
2206.000000	98.795613 
2205.000000	98.782214 
2204.000000	98.731650 
2203.000000	98.667135 
2202.000000	98.626435 
2201.000000	98.625336 
2200.000000	98.642564 
2199.000000	98.651621 
2198.000000	98.657183 
2197.000000	98.683878 
2196.000000	98.734125 
2195.000000	98.775699 
2194.000000	98.775716 
2193.000000	98.736291 
2192.000000	98.691408 
2191.000000	98.673992 
2190.000000	98.688638 
2189.000000	98.711002 
2188.000000	98.712096 
2187.000000	98.686926 
2186.000000	98.659219 
2185.000000	98.656430 
2184.000000	98.683293 
2183.000000	98.722813 
2182.000000	98.755900 
2181.000000	98.771541 
2180.000000	98.764938 
2179.000000	98.739592 
2178.000000	98.711053 
2177.000000	98.696475 
2176.000000	98.696193 
2175.000000	98.693905 
2174.000000	98.679183 
2173.000000	98.662977 
2172.000000	98.666069 
2171.000000	98.695626 
2170.000000	98.735632 
2169.000000	98.759464 
2168.000000	98.753433 
2167.000000	98.728865 
2166.000000	98.708425 
2165.000000	98.701207 
2164.000000	98.698754 
2163.000000	98.697722 
2162.000000	98.712640 
2161.000000	98.754619 
2160.000000	98.807822 
2159.000000	98.845687 
2158.000000	98.863852 
2157.000000	98.872912 
2156.000000	98.866147 
2155.000000	98.822577 
2154.000000	98.741064 
2153.000000	98.651142 
2152.000000	98.584854 
2151.000000	98.550244 
2150.000000	98.537777 
2149.000000	98.540019 
2148.000000	98.555708 
2147.000000	98.582000 
2146.000000	98.613789 
2145.000000	98.650319 
2144.000000	98.694404 
2143.000000	98.742312 
2142.000000	98.779938 
2141.000000	98.794784 
2140.000000	98.789798 
2139.000000	98.778373 
2138.000000	98.765960 
2137.000000	98.746705 
2136.000000	98.722945 
2135.000000	98.716441 
2134.000000	98.746584 
2133.000000	98.802488 
2132.000000	98.851655 
2131.000000	98.874509 
2130.000000	98.876157 
2129.000000	98.865978 
2128.000000	98.843663 
2127.000000	98.811159 
2126.000000	98.782336 
2125.000000	98.768155 
2124.000000	98.762004 
2123.000000	98.752335 
2122.000000	98.741862 
2121.000000	98.739969 
2120.000000	98.741607 
2119.000000	98.730258 
2118.000000	98.702153 
2117.000000	98.673953 
2116.000000	98.663615 
2115.000000	98.674007 
2114.000000	98.697116 
2113.000000	98.723101 
2112.000000	98.741747 
2111.000000	98.745566 
2110.000000	98.737775 
2109.000000	98.731133 
2108.000000	98.734673 
2107.000000	98.746576 
2106.000000	98.761010 
2105.000000	98.773462 
2104.000000	98.777388 
2103.000000	98.766223 
2102.000000	98.744516 
2101.000000	98.727835 
2100.000000	98.723685 
2099.000000	98.720008 
2098.000000	98.702480 
2097.000000	98.678537 
2096.000000	98.672343 
2095.000000	98.694926 
2094.000000	98.728340 
2093.000000	98.743583 
2092.000000	98.730217 
2091.000000	98.704787 
2090.000000	98.691519 
2089.000000	98.697383 
2088.000000	98.708054 
2087.000000	98.708154 
2086.000000	98.699554 
2085.000000	98.694578 
2084.000000	98.695743 
2083.000000	98.692257 
2082.000000	98.677807 
2081.000000	98.662528 
2080.000000	98.662762 
2079.000000	98.685101 
2078.000000	98.724153 
2077.000000	98.768313 
2076.000000	98.802092 
2075.000000	98.810279 
2074.000000	98.789080 
2073.000000	98.751211 
2072.000000	98.712775 
2071.000000	98.677775 
2070.000000	98.643982 
2069.000000	98.620527 
2068.000000	98.626602 
2067.000000	98.668733 
2066.000000	98.727599 
2065.000000	98.773742 
2064.000000	98.793409 
2063.000000	98.793230 
2062.000000	98.783298 
2061.000000	98.765652 
2060.000000	98.739985 
2059.000000	98.711613 
2058.000000	98.687948 
2057.000000	98.670523 
2056.000000	98.655231 
2055.000000	98.637868 
2054.000000	98.614267 
2053.000000	98.579045 
2052.000000	98.535018 
2051.000000	98.504869 
2050.000000	98.520410 
2049.000000	98.587343 
2048.000000	98.668333 
2047.000000	98.718028 
2046.000000	98.726890 
2045.000000	98.714755 
2044.000000	98.693309 
2043.000000	98.658386 
2042.000000	98.617372 
2041.000000	98.596321 
2040.000000	98.606382 
2039.000000	98.623534 
2038.000000	98.619328 
2037.000000	98.599590 
2036.000000	98.593919 
2035.000000	98.611450 
2034.000000	98.627473 
2033.000000	98.619001 
2032.000000	98.598217 
2031.000000	98.598888 
2030.000000	98.635700 
2029.000000	98.686517 
2028.000000	98.717222 
2027.000000	98.721216 
2026.000000	98.727168 
2025.000000	98.764321 
2024.000000	98.824770 
2023.000000	98.868348 
2022.000000	98.863828 
2021.000000	98.815517 
2020.000000	98.748911 
2019.000000	98.684713 
2018.000000	98.638030 
2017.000000	98.628502 
2016.000000	98.666452 
2015.000000	98.728870 
2014.000000	98.768248 
2013.000000	98.755414 
2012.000000	98.707967 
2011.000000	98.668178 
2010.000000	98.657857 
2009.000000	98.663632 
2008.000000	98.660933 
2007.000000	98.638858 
2006.000000	98.598651 
2005.000000	98.543874 
2004.000000	98.485188 
2003.000000	98.445986 
2002.000000	98.448877 
2001.000000	98.493166 
2000.000000	98.552881 
1999.000000	98.599286 
1998.000000	98.619338 
1997.000000	98.616321 
1996.000000	98.603424 
1995.000000	98.595613 
1994.000000	98.598467 
1993.000000	98.604781 
1992.000000	98.611802 
1991.000000	98.638370 
1990.000000	98.703845 
1989.000000	98.786469 
1988.000000	98.826738 
1987.000000	98.788001 
1986.000000	98.699405 
1985.000000	98.621076 
1984.000000	98.579215 
1983.000000	98.557926 
1982.000000	98.545732 
1981.000000	98.557755 
1980.000000	98.604341 
1979.000000	98.662021 
1978.000000	98.694428 
1977.000000	98.693544 
1976.000000	98.681760 
1975.000000	98.678218 
1974.000000	98.680996 
1973.000000	98.679499 
1972.000000	98.671409 
1971.000000	98.666547 
1970.000000	98.678024 
1969.000000	98.707657 
1968.000000	98.738137 
1967.000000	98.746234 
1966.000000	98.728517 
1965.000000	98.706666 
1964.000000	98.702231 
1963.000000	98.713689 
1962.000000	98.723832 
1961.000000	98.724534 
1960.000000	98.724848 
1959.000000	98.732758 
1958.000000	98.739164 
1957.000000	98.728862 
1956.000000	98.703871 
1955.000000	98.686166 
1954.000000	98.693078 
1953.000000	98.715434 
1952.000000	98.726414 
1951.000000	98.710809 
1950.000000	98.680008 
1949.000000	98.658447 
1948.000000	98.662855 
1947.000000	98.695452 
1946.000000	98.746873 
1945.000000	98.799203 
1944.000000	98.832746 
1943.000000	98.838900 
1942.000000	98.825963 
1941.000000	98.807057 
1940.000000	98.786893 
1939.000000	98.765716 
1938.000000	98.748190 
1937.000000	98.740033 
1936.000000	98.738949 
1935.000000	98.736331 
1934.000000	98.727359 
1933.000000	98.714942 
1932.000000	98.705051 
1931.000000	98.703040 
1930.000000	98.712044 
1929.000000	98.727565 
1928.000000	98.738900 
1927.000000	98.741596 
1926.000000	98.743821 
1925.000000	98.753370 
1924.000000	98.762165 
1923.000000	98.756268 
1922.000000	98.738658 
1921.000000	98.726887 
1920.000000	98.728781 
1919.000000	98.733525 
1918.000000	98.728859 
1917.000000	98.717641 
1916.000000	98.711345 
1915.000000	98.716551 
1914.000000	98.732487 
1913.000000	98.752735 
1912.000000	98.765509 
1911.000000	98.759484 
1910.000000	98.735148 
1909.000000	98.706812 
1908.000000	98.690478 
1907.000000	98.691150 
1906.000000	98.702932 
1905.000000	98.715335 
1904.000000	98.718407 
1903.000000	98.710703 
1902.000000	98.702369 
1901.000000	98.704438 
1900.000000	98.716323 
1899.000000	98.728346 
1898.000000	98.734851 
1897.000000	98.737840 
1896.000000	98.737624 
1895.000000	98.730310 
1894.000000	98.717157 
1893.000000	98.707138 
1892.000000	98.706682 
1891.000000	98.713495 
1890.000000	98.723153 
1889.000000	98.736113 
1888.000000	98.754963 
1887.000000	98.780154 
1886.000000	98.809437 
1885.000000	98.835610 
1884.000000	98.845372 
1883.000000	98.828205 
1882.000000	98.788996 
1881.000000	98.746785 
1880.000000	98.719084 
1879.000000	98.709900 
1878.000000	98.713474 
1877.000000	98.723346 
1876.000000	98.733223 
1875.000000	98.736337 
1874.000000	98.731357 
1873.000000	98.723995 
1872.000000	98.717821 
1871.000000	98.708846 
1870.000000	98.695513 
1869.000000	98.689309 
1868.000000	98.701683 
1867.000000	98.725461 
1866.000000	98.744190 
1865.000000	98.751679 
1864.000000	98.753249 
1863.000000	98.753424 
1862.000000	98.749661 
1861.000000	98.739511 
1860.000000	98.727989 
1859.000000	98.723621 
1858.000000	98.729589 
1857.000000	98.741564 
1856.000000	98.753652 
1855.000000	98.763787 
1854.000000	98.772881 
1853.000000	98.779520 
1852.000000	98.779829 
1851.000000	98.771929 
1850.000000	98.757905 
1849.000000	98.744254 
1848.000000	98.738149 
1847.000000	98.741935 
1846.000000	98.750824 
1845.000000	98.756805 
1844.000000	98.756107 
1843.000000	98.751272 
1842.000000	98.745313 
1841.000000	98.737766 
1840.000000	98.727290 
1839.000000	98.714839 
1838.000000	98.705378 
1837.000000	98.705119 
1836.000000	98.715522 
1835.000000	98.731513 
1834.000000	98.744439 
1833.000000	98.747615 
1832.000000	98.741303 
1831.000000	98.731331 
1830.000000	98.723790 
1829.000000	98.721183 
1828.000000	98.722379 
1827.000000	98.726587 
1826.000000	98.733984 
1825.000000	98.743847 
1824.000000	98.753690 
1823.000000	98.760790 
1822.000000	98.764895 
1821.000000	98.766755 
1820.000000	98.765966 
1819.000000	98.761204 
1818.000000	98.752991 
1817.000000	98.743807 
1816.000000	98.734400 
1815.000000	98.726063 
1814.000000	98.723934 
1813.000000	98.733660 
1812.000000	98.752943 
1811.000000	98.770138 
1810.000000	98.778171 
1809.000000	98.781646 
1808.000000	98.786348 
1807.000000	98.791223 
1806.000000	98.792681 
1805.000000	98.790048 
1804.000000	98.783597 
1803.000000	98.772830 
1802.000000	98.758508 
1801.000000	98.744941 
1800.000000	98.735832 
1799.000000	98.729968 
1798.000000	98.727144 
1797.000000	98.731028 
1796.000000	98.743746 
1795.000000	98.761788 
1794.000000	98.776635 
1793.000000	98.781056 
1792.000000	98.775973 
1791.000000	98.768176 
1790.000000	98.763272 
1789.000000	98.762037 
1788.000000	98.761405 
1787.000000	98.757233 
1786.000000	98.747766 
1785.000000	98.735081 
1784.000000	98.723271 
1783.000000	98.718338 
1782.000000	98.724274 
1781.000000	98.738677 
1780.000000	98.754062 
1779.000000	98.763070 
1778.000000	98.765566 
1777.000000	98.765968 
1776.000000	98.767899 
1775.000000	98.771825 
1774.000000	98.773263 
1773.000000	98.767538 
1772.000000	98.758629 
1771.000000	98.753702 
1770.000000	98.752855 
1769.000000	98.752114 
1768.000000	98.747844 
1767.000000	98.739951 
1766.000000	98.732735 
1765.000000	98.731516 
1764.000000	98.738021 
1763.000000	98.748901 
1762.000000	98.759408 
1761.000000	98.767660 
1760.000000	98.772336 
1759.000000	98.770335 
1758.000000	98.760021 
1757.000000	98.743041 
1756.000000	98.725622 
1755.000000	98.712147 
1754.000000	98.703404 
1753.000000	98.701072 
1752.000000	98.707044 
1751.000000	98.715921 
1750.000000	98.716382 
1749.000000	98.706722 
1748.000000	98.697343 
1747.000000	98.695797 
1746.000000	98.696773 
1745.000000	98.693187 
1744.000000	98.686524 
1743.000000	98.679856 
1742.000000	98.671166 
1741.000000	98.659173 
1740.000000	98.648975 
1739.000000	98.646345 
1738.000000	98.649141 
1737.000000	98.651521 
1736.000000	98.647757 
1735.000000	98.631004 
1734.000000	98.603439 
1733.000000	98.578337 
1732.000000	98.565528 
1731.000000	98.567616 
1730.000000	98.580795 
1729.000000	98.594983 
1728.000000	98.604991 
1727.000000	98.613309 
1726.000000	98.620939 
1725.000000	98.623833 
1724.000000	98.619213 
1723.000000	98.609538 
1722.000000	98.601915 
1721.000000	98.601964 
1720.000000	98.610786 
1719.000000	98.624464 
1718.000000	98.638478 
1717.000000	98.650983 
1716.000000	98.657833 
1715.000000	98.657141 
1714.000000	98.653990 
1713.000000	98.651891 
1712.000000	98.649751 
1711.000000	98.647722 
1710.000000	98.648001 
1709.000000	98.649838 
1708.000000	98.651597 
1707.000000	98.655308 
1706.000000	98.665169 
1705.000000	98.679627 
1704.000000	98.687418 
1703.000000	98.683280 
1702.000000	98.669303 
1701.000000	98.653397 
1700.000000	98.647512 
1699.000000	98.648422 
1698.000000	98.650831 
1697.000000	98.659174 
1696.000000	98.672130 
1695.000000	98.684828 
1694.000000	98.696894 
1693.000000	98.709119 
1692.000000	98.717258 
1691.000000	98.712586 
1690.000000	98.695317 
1689.000000	98.676861 
1688.000000	98.667367 
1687.000000	98.665896 
1686.000000	98.662460 
1685.000000	98.651297 
1684.000000	98.642783 
1683.000000	98.648903 
1682.000000	98.663295 
1681.000000	98.676981 
1680.000000	98.688891 
1679.000000	98.697665 
1678.000000	98.701565 
1677.000000	98.698430 
1676.000000	98.691528 
1675.000000	98.689861 
1674.000000	98.693824 
1673.000000	98.693605 
1672.000000	98.684265 
1671.000000	98.668645 
1670.000000	98.657438 
1669.000000	98.659662 
1668.000000	98.672294 
1667.000000	98.685416 
1666.000000	98.690506 
1665.000000	98.683869 
1664.000000	98.667588 
1663.000000	98.653825 
1662.000000	98.655976 
1661.000000	98.670510 
1660.000000	98.686381 
1659.000000	98.697827 
1658.000000	98.704556 
1657.000000	98.706445 
1656.000000	98.706408 
1655.000000	98.704262 
1654.000000	98.698472 
1653.000000	98.696214 
1652.000000	98.695100 
1651.000000	98.683703 
1650.000000	98.669557 
1649.000000	98.667471 
1648.000000	98.677695 
1647.000000	98.691952 
1646.000000	98.697928 
1645.000000	98.693463 
1644.000000	98.683077 
1643.000000	98.673438 
1642.000000	98.666998 
1641.000000	98.660578 
1640.000000	98.649954 
1639.000000	98.634340 
1638.000000	98.618639 
1637.000000	98.610380 
1636.000000	98.615557 
1635.000000	98.630739 
1634.000000	98.643553 
1633.000000	98.651315 
1632.000000	98.659676 
1631.000000	98.669875 
1630.000000	98.677616 
1629.000000	98.678439 
1628.000000	98.672482 
1627.000000	98.663117 
1626.000000	98.652081 
1625.000000	98.639849 
1624.000000	98.629771 
1623.000000	98.626680 
1622.000000	98.628990 
1621.000000	98.629327 
1620.000000	98.627135 
1619.000000	98.627514 
1618.000000	98.632777 
1617.000000	98.641225 
1616.000000	98.651404 
1615.000000	98.662081 
1614.000000	98.667931 
1613.000000	98.663090 
1612.000000	98.647125 
1611.000000	98.629030 
1610.000000	98.619472 
1609.000000	98.620051 
1608.000000	98.626731 
1607.000000	98.637506 
1606.000000	98.648809 
1605.000000	98.652876 
1604.000000	98.647345 
1603.000000	98.639177 
1602.000000	98.636701 
1601.000000	98.641565 
1600.000000	98.650486 
1599.000000	98.659804 
1598.000000	98.665049 
1597.000000	98.662053 
1596.000000	98.651542 
1595.000000	98.640611 
1594.000000	98.636977 
1593.000000	98.642512 
1592.000000	98.654192 
1591.000000	98.667255 
1590.000000	98.675066 
1589.000000	98.671247 
1588.000000	98.656822 
1587.000000	98.641553 
1586.000000	98.635087 
1585.000000	98.637627 
1584.000000	98.644636 
1583.000000	98.654750 
1582.000000	98.665408 
1581.000000	98.670429 
1580.000000	98.667937 
1579.000000	98.664166 
1578.000000	98.663982 
1577.000000	98.664854 
1576.000000	98.663898 
1575.000000	98.664864 
1574.000000	98.668856 
1573.000000	98.672112 
1572.000000	98.673088 
1571.000000	98.673789 
1570.000000	98.680648 
1569.000000	98.693253 
1568.000000	98.703087 
1567.000000	98.704712 
1566.000000	98.698441 
1565.000000	98.686586 
1564.000000	98.677216 
1563.000000	98.680799 
1562.000000	98.701672 
1561.000000	98.729508 
1560.000000	98.742919 
1559.000000	98.735033 
1558.000000	98.724930 
1557.000000	98.721884 
1556.000000	98.720148 
1555.000000	98.719430 
1554.000000	98.711943 
1553.000000	98.696697 
1552.000000	98.679525 
1551.000000	98.668002 
1550.000000	98.665834 
1549.000000	98.673094 
1548.000000	98.684637 
1547.000000	98.694284 
1546.000000	98.696281 
1545.000000	98.689180 
1544.000000	98.680111 
1543.000000	98.677750 
1542.000000	98.683826 
1541.000000	98.691817 
1540.000000	98.690206 
1539.000000	98.679944 
1538.000000	98.670690 
1537.000000	98.666447 
1536.000000	98.666863 
1535.000000	98.666363 
1534.000000	98.660213 
1533.000000	98.653289 
1532.000000	98.652414 
1531.000000	98.654962 
1530.000000	98.657985 
1529.000000	98.662312 
1528.000000	98.668988 
1527.000000	98.677630 
1526.000000	98.685592 
1525.000000	98.690567 
1524.000000	98.693794 
1523.000000	98.696998 
1522.000000	98.699723 
1521.000000	98.700559 
1520.000000	98.698661 
1519.000000	98.696852 
1518.000000	98.701064 
1517.000000	98.714198 
1516.000000	98.729858 
1515.000000	98.737751 
1514.000000	98.734997 
1513.000000	98.727805 
1512.000000	98.723336 
1511.000000	98.722944 
1510.000000	98.723844 
1509.000000	98.723460 
1508.000000	98.721835 
1507.000000	98.720657 
1506.000000	98.722308 
1505.000000	98.722184 
1504.000000	98.715787 
1503.000000	98.707812 
1502.000000	98.701306 
1501.000000	98.697891 
1500.000000	98.700408 
1499.000000	98.710637 
1498.000000	98.723501 
1497.000000	98.733388 
1496.000000	98.739675 
1495.000000	98.744547 
1494.000000	98.749250 
1493.000000	98.750590 
1492.000000	98.741644 
1491.000000	98.719866 
1490.000000	98.696705 
1489.000000	98.688289 
1488.000000	98.694664 
1487.000000	98.704597 
1486.000000	98.713850 
1485.000000	98.720284 
1484.000000	98.720884 
1483.000000	98.716901 
1482.000000	98.713616 
1481.000000	98.716034 
1480.000000	98.721916 
1479.000000	98.725469 
1478.000000	98.724470 
1477.000000	98.722148 
1476.000000	98.721165 
1475.000000	98.721161 
1474.000000	98.721441 
1473.000000	98.721223 
1472.000000	98.717853 
1471.000000	98.706938 
1470.000000	98.690688 
1469.000000	98.678130 
1468.000000	98.674975 
1467.000000	98.679389 
1466.000000	98.686708 
1465.000000	98.693454 
1464.000000	98.698273 
1463.000000	98.697970 
1462.000000	98.690798 
1461.000000	98.680491 
1460.000000	98.673143 
1459.000000	98.672067 
1458.000000	98.673346 
1457.000000	98.673868 
1456.000000	98.675777 
1455.000000	98.679260 
1454.000000	98.683356 
1453.000000	98.688016 
1452.000000	98.689433 
1451.000000	98.685242 
1450.000000	98.679182 
1449.000000	98.679681 
1448.000000	98.689181 
1447.000000	98.700678 
1446.000000	98.705553 
1445.000000	98.701588 
1444.000000	98.693485 
1443.000000	98.684392 
1442.000000	98.675430 
1441.000000	98.669647 
1440.000000	98.671752 
1439.000000	98.680974 
1438.000000	98.688135 
1437.000000	98.686751 
1436.000000	98.683012 
1435.000000	98.684680 
1434.000000	98.691158 
1433.000000	98.699535 
1432.000000	98.706168 
1431.000000	98.709074 
1430.000000	98.709784 
1429.000000	98.711668 
1428.000000	98.714064 
1427.000000	98.713186 
1426.000000	98.706674 
1425.000000	98.694737 
1424.000000	98.683055 
1423.000000	98.676332 
1422.000000	98.673963 
1421.000000	98.674563 
1420.000000	98.680101 
1419.000000	98.691498 
1418.000000	98.702032 
1417.000000	98.706335 
1416.000000	98.706938 
1415.000000	98.706647 
1414.000000	98.703998 
1413.000000	98.698954 
1412.000000	98.696637 
1411.000000	98.701953 
1410.000000	98.713093 
1409.000000	98.724812 
1408.000000	98.732223 
1407.000000	98.732693 
1406.000000	98.727663 
1405.000000	98.721834 
1404.000000	98.720031 
1403.000000	98.720520 
1402.000000	98.717618 
1401.000000	98.709168 
1400.000000	98.698318 
1399.000000	98.691483 
1398.000000	98.693456 
1397.000000	98.705115 
1396.000000	98.722496 
1395.000000	98.736813 
1394.000000	98.739665 
1393.000000	98.732627 
1392.000000	98.726328 
1391.000000	98.727019 
1390.000000	98.731078 
1389.000000	98.730780 
1388.000000	98.722109 
1387.000000	98.708367 
1386.000000	98.697288 
1385.000000	98.694464 
1384.000000	98.700058 
1383.000000	98.708313 
1382.000000	98.712365 
1381.000000	98.711349 
1380.000000	98.709238 
1379.000000	98.708958 
1378.000000	98.710468 
1377.000000	98.714277 
1376.000000	98.722103 
1375.000000	98.732369 
1374.000000	98.737697 
1373.000000	98.732446 
1372.000000	98.720683 
1371.000000	98.712086 
1370.000000	98.711861 
1369.000000	98.716742 
1368.000000	98.721464 
1367.000000	98.723724 
1366.000000	98.724118 
1365.000000	98.724908 
1364.000000	98.728771 
1363.000000	98.735720 
1362.000000	98.740365 
1361.000000	98.736410 
1360.000000	98.725294 
1359.000000	98.716050 
1358.000000	98.715731 
1357.000000	98.723014 
1356.000000	98.731857 
1355.000000	98.738663 
1354.000000	98.743737 
1353.000000	98.748049 
1352.000000	98.750543 
1351.000000	98.750312 
1350.000000	98.748419 
1349.000000	98.745052 
1348.000000	98.739807 
1347.000000	98.733924 
1346.000000	98.731125 
1345.000000	98.734290 
1344.000000	98.742343 
1343.000000	98.751038 
1342.000000	98.756720 
1341.000000	98.758639 
1340.000000	98.758242 
1339.000000	98.756553 
1338.000000	98.753184 
1337.000000	98.749120 
1336.000000	98.747793 
1335.000000	98.750652 
1334.000000	98.753766 
1333.000000	98.751815 
1332.000000	98.744885 
1331.000000	98.738518 
1330.000000	98.736471 
1329.000000	98.737065 
1328.000000	98.738273 
1327.000000	98.742186 
1326.000000	98.750380 
1325.000000	98.757905 
1324.000000	98.758116 
1323.000000	98.751395 
1322.000000	98.744885 
1321.000000	98.744097 
1320.000000	98.748780 
1319.000000	98.756599 
1318.000000	98.766428 
1317.000000	98.776340 
1316.000000	98.781691 
1315.000000	98.778521 
1314.000000	98.768455 
1313.000000	98.758651 
1312.000000	98.755890 
1311.000000	98.760806 
1310.000000	98.767787 
1309.000000	98.770293 
1308.000000	98.766349 
1307.000000	98.759421 
1306.000000	98.753899 
1305.000000	98.750411 
1304.000000	98.747525 
1303.000000	98.746147 
1302.000000	98.749479 
1301.000000	98.757931 
1300.000000	98.767146 
1299.000000	98.772850 
1298.000000	98.775740 
1297.000000	98.778719 
1296.000000	98.780443 
1295.000000	98.775798 
1294.000000	98.763694 
1293.000000	98.751291 
1292.000000	98.747871 
1291.000000	98.755479 
1290.000000	98.767340 
1289.000000	98.774763 
1288.000000	98.774018 
1287.000000	98.767488 
1286.000000	98.760523 
1285.000000	98.757386 
1284.000000	98.758361 
1283.000000	98.759901 
1282.000000	98.758711 
1281.000000	98.755731 
1280.000000	98.754634 
1279.000000	98.756639 
1278.000000	98.759097 
1277.000000	98.760044 
1276.000000	98.761498 
1275.000000	98.766389 
1274.000000	98.773666 
1273.000000	98.778779 
1272.000000	98.778386 
1271.000000	98.772843 
1270.000000	98.764693 
1269.000000	98.756844 
1268.000000	98.752394 
1267.000000	98.753809 
1266.000000	98.760671 
1265.000000	98.769052 
1264.000000	98.773795 
1263.000000	98.771761 
1262.000000	98.764304 
1261.000000	98.757511 
1260.000000	98.758397 
1259.000000	98.768229 
1258.000000	98.779760 
1257.000000	98.783616 
1256.000000	98.777357 
1255.000000	98.766535 
1254.000000	98.757510 
1253.000000	98.752346 
1252.000000	98.751288 
1251.000000	98.755889 
1250.000000	98.765957 
1249.000000	98.775617 
1248.000000	98.776867 
1247.000000	98.767720 
1246.000000	98.754724 
1245.000000	98.747316 
1244.000000	98.751005 
1243.000000	98.764731 
1242.000000	98.781415 
1241.000000	98.790862 
1240.000000	98.785946 
1239.000000	98.769087 
1238.000000	98.751373 
1237.000000	98.742617 
1236.000000	98.742486 
1235.000000	98.742600 
1234.000000	98.736086 
1233.000000	98.723064 
1232.000000	98.707881 
1231.000000	98.694487 
1230.000000	98.685271 
1229.000000	98.681305 
1228.000000	98.681286 
1227.000000	98.681537 
1226.000000	98.679520 
1225.000000	98.677200 
1224.000000	98.679170 
1223.000000	98.687210 
1222.000000	98.697683 
1221.000000	98.704257 
1220.000000	98.702618 
1219.000000	98.693355 
1218.000000	98.681734 
1217.000000	98.674485 
1216.000000	98.675521 
1215.000000	98.684325 
1214.000000	98.698315 
1213.000000	98.715476 
1212.000000	98.733451 
1211.000000	98.747673 
1210.000000	98.753533 
1209.000000	98.750441 
1208.000000	98.741544 
1207.000000	98.729701 
1206.000000	98.716334 
1205.000000	98.704255 
1204.000000	98.698296 
1203.000000	98.701075 
1202.000000	98.709752 
1201.000000	98.718775 
1200.000000	98.724709 
1199.000000	98.726961 
1198.000000	98.725233 
1197.000000	98.718715 
1196.000000	98.707949 
1195.000000	98.696032 
1194.000000	98.687133 
1193.000000	98.683947 
1192.000000	98.686915 
1191.000000	98.695724 
1190.000000	98.710678 
1189.000000	98.731436 
1188.000000	98.754297 
1187.000000	98.772570 
1186.000000	98.781316 
1185.000000	98.780824 
1184.000000	98.774318 
1183.000000	98.764313 
1182.000000	98.753338 
1181.000000	98.746008 
1180.000000	98.746438 
1179.000000	98.753627 
1178.000000	98.761945 
1177.000000	98.765832 
1176.000000	98.761758 
1175.000000	98.747773 
1174.000000	98.726240 
1173.000000	98.706660 
1172.000000	98.700370 
1171.000000	98.710227 
1170.000000	98.728335 
1169.000000	98.744512 
1168.000000	98.753304 
1167.000000	98.753105 
1166.000000	98.745260 
1165.000000	98.736671 
1164.000000	98.736915 
1163.000000	98.747965 
1162.000000	98.760814 
1161.000000	98.766436 
1160.000000	98.765693 
1159.000000	98.763894 
1158.000000	98.760532 
1157.000000	98.751217 
1156.000000	98.736782 
1155.000000	98.723428 
1154.000000	98.715352 
1153.000000	98.713561 
1152.000000	98.720149 
1151.000000	98.735656 
1150.000000	98.751828 
1149.000000	98.755160 
1148.000000	98.740910 
1147.000000	98.718468 
1146.000000	98.699822 
1145.000000	98.687029 
1144.000000	98.674723 
1143.000000	98.661479 
1142.000000	98.653544 
1141.000000	98.657109 
1140.000000	98.669281 
1139.000000	98.678140 
1138.000000	98.673121 
1137.000000	98.656088 
1136.000000	98.639985 
1135.000000	98.634184 
1134.000000	98.633149 
1133.000000	98.623274 
1132.000000	98.599284 
1131.000000	98.569111 
1130.000000	98.543087 
1129.000000	98.523463 
1128.000000	98.505460 
1127.000000	98.483828 
1126.000000	98.457071 
1125.000000	98.429725 
1124.000000	98.411748 
1123.000000	98.410555 
1122.000000	98.420742 
1121.000000	98.425609 
1120.000000	98.411686 
1119.000000	98.379476 
1118.000000	98.339640 
1117.000000	98.303455 
1116.000000	98.278968 
1115.000000	98.269854 
1114.000000	98.271230 
1113.000000	98.268742 
1112.000000	98.248093 
1111.000000	98.207923 
1110.000000	98.161994 
1109.000000	98.127196 
1108.000000	98.108335 
1107.000000	98.093695 
1106.000000	98.067503 
1105.000000	98.028235 
1104.000000	97.990677 
1103.000000	97.966151 
1102.000000	97.945730 
1101.000000	97.912076 
1100.000000	97.864931 
1099.000000	97.822839 
1098.000000	97.798922 
1097.000000	97.785628 
1096.000000	97.768693 
1095.000000	97.744688 
1094.000000	97.717618 
1093.000000	97.688265 
1092.000000	97.657585 
1091.000000	97.633828 
1090.000000	97.623925 
1089.000000	97.619911 
1088.000000	97.604152 
1087.000000	97.568902 
1086.000000	97.524635 
1085.000000	97.489240 
1084.000000	97.473568 
1083.000000	97.474629 
1082.000000	97.476028 
1081.000000	97.457479 
1080.000000	97.412042 
1079.000000	97.354571 
1078.000000	97.307200 
1077.000000	97.276930 
1076.000000	97.253836 
1075.000000	97.229563 
1074.000000	97.208146 
1073.000000	97.196740 
1072.000000	97.194616 
1071.000000	97.196323 
1070.000000	97.199409 
1069.000000	97.202876 
1068.000000	97.201756 
1067.000000	97.190531 
1066.000000	97.172014 
1065.000000	97.156732 
1064.000000	97.150681 
1063.000000	97.146926 
1062.000000	97.132543 
1061.000000	97.102712 
1060.000000	97.065177 
1059.000000	97.031603 
1058.000000	97.007793 
1057.000000	96.992654 
1056.000000	96.982723 
1055.000000	96.974639 
1054.000000	96.965414 
1053.000000	96.953719 
1052.000000	96.940125 
1051.000000	96.924168 
1050.000000	96.903350 
1049.000000	96.877298 
1048.000000	96.849201 
1047.000000	96.819711 
1046.000000	96.784270 
1045.000000	96.741286 
1044.000000	96.698109 
1043.000000	96.662493 
1042.000000	96.632148 
1041.000000	96.601035 
1040.000000	96.572491 
1039.000000	96.554536 
1038.000000	96.543466 
1037.000000	96.526469 
1036.000000	96.503374 
1035.000000	96.490258 
1034.000000	96.492830 
1033.000000	96.489424 
1032.000000	96.453555 
1031.000000	96.385954 
1030.000000	96.311754 
1029.000000	96.251053 
1028.000000	96.205674 
1027.000000	96.171347 
1026.000000	96.147012 
1025.000000	96.129483 
1024.000000	96.110983 
1023.000000	96.087298 
1022.000000	96.061332 
1021.000000	96.035470 
1020.000000	96.007435 
1019.000000	95.977239 
1018.000000	95.951427 
1017.000000	95.935051 
1016.000000	95.923479 
1015.000000	95.906661 
1014.000000	95.878778 
1013.000000	95.840517 
1012.000000	95.794730 
1011.000000	95.743605 
1010.000000	95.688169 
1009.000000	95.627566 
1008.000000	95.560489 
1007.000000	95.488956 
1006.000000	95.417275 
1005.000000	95.345118 
1004.000000	95.267502 
1003.000000	95.188232 
1002.000000	95.128634 
1001.000000	95.110496 
1000.000000	95.126457 
999.000000	 95.136935 
998.000000	 95.106592 
997.000000	 95.040570 
996.000000	 94.974594 
995.000000	 94.931612 
994.000000	 94.900380 
993.000000	 94.858812 
992.000000	 94.804656 
991.000000	 94.752911 
990.000000	 94.711435 
989.000000	 94.672538 
988.000000	 94.626544 
987.000000	 94.571606 
986.000000	 94.508763 
985.000000	 94.437433 
984.000000	 94.359905 
983.000000	 94.283572 
982.000000	 94.214723 
981.000000	 94.154062 
980.000000	 94.099341 
979.000000	 94.046631 
978.000000	 93.987919 
977.000000	 93.914755 
976.000000	 93.827800 
975.000000	 93.737255 
974.000000	 93.650387 
973.000000	 93.563762 
972.000000	 93.471131 
971.000000	 93.373641 
970.000000	 93.278415 
969.000000	 93.191659 
968.000000	 93.116835 
967.000000	 93.054685 
966.000000	 93.000877 
965.000000	 92.948376 
964.000000	 92.896590 
963.000000	 92.854215 
962.000000	 92.828821 
961.000000	 92.817401 
960.000000	 92.811452 
959.000000	 92.808024 
958.000000	 92.811506 
957.000000	 92.827191 
956.000000	 92.857260 
955.000000	 92.901370 
954.000000	 92.957507 
953.000000	 93.022464 
952.000000	 93.091964 
951.000000	 93.158170 
950.000000	 93.207384 
949.000000	 93.225767 
948.000000	 93.211091 
947.000000	 93.175933 
946.000000	 93.135284 
945.000000	 93.092313 
944.000000	 93.038890 
943.000000	 92.967763 
942.000000	 92.881276 
941.000000	 92.790617 
940.000000	 92.710322 
939.000000	 92.651345 
938.000000	 92.614597 
937.000000	 92.591524 
936.000000	 92.573727 
935.000000	 92.560059 
934.000000	 92.551098 
933.000000	 92.540264 
932.000000	 92.518038 
931.000000	 92.486006 
930.000000	 92.459009 
929.000000	 92.447269 
928.000000	 92.440077 
927.000000	 92.414593 
926.000000	 92.361361 
925.000000	 92.294295 
924.000000	 92.232359 
923.000000	 92.178586 
922.000000	 92.124691 
921.000000	 92.072069 
920.000000	 92.035805 
919.000000	 92.023820 
918.000000	 92.021321 
917.000000	 92.004214 
916.000000	 91.964100 
915.000000	 91.913723 
914.000000	 91.870928 
913.000000	 91.843404 
912.000000	 91.826480 
911.000000	 91.808179 
910.000000	 91.777048 
909.000000	 91.732550 
908.000000	 91.689048 
907.000000	 91.663948 
906.000000	 91.659641 
905.000000	 91.660032 
904.000000	 91.645200 
903.000000	 91.607440 
902.000000	 91.555059 
901.000000	 91.504563 
900.000000	 91.468543 
899.000000	 91.447551 
898.000000	 91.433585 
897.000000	 91.422149 
896.000000	 91.416549 
895.000000	 91.417064 
894.000000	 91.412355 
893.000000	 91.389283 
892.000000	 91.348098 
891.000000	 91.300574 
890.000000	 91.254936 
889.000000	 91.209295 
888.000000	 91.158346 
887.000000	 91.099965 
886.000000	 91.037181 
885.000000	 90.980329 
884.000000	 90.944016 
883.000000	 90.932144 
882.000000	 90.926116 
881.000000	 90.897668 
880.000000	 90.835687 
879.000000	 90.753771 
878.000000	 90.671224 
877.000000	 90.594506 
876.000000	 90.518736 
875.000000	 90.439381 
874.000000	 90.359254 
873.000000	 90.287646 
872.000000	 90.231545 
871.000000	 90.183658 
870.000000	 90.123788 
869.000000	 90.039760 
868.000000	 89.942032 
867.000000	 89.848278 
866.000000	 89.758858 
865.000000	 89.660584 
864.000000	 89.552228 
863.000000	 89.449892 
862.000000	 89.363308 
861.000000	 89.280799 
860.000000	 89.185367 
859.000000	 89.076972 
858.000000	 88.972532 
857.000000	 88.890139 
856.000000	 88.837665 
855.000000	 88.809678 
854.000000	 88.789790 
853.000000	 88.760886 
852.000000	 88.717400 
851.000000	 88.665950 
850.000000	 88.614542 
849.000000	 88.565245 
848.000000	 88.516464 
847.000000	 88.467551 
846.000000	 88.423268 
845.000000	 88.398972 
844.000000	 88.416582 
843.000000	 88.485119 
842.000000	 88.585652 
841.000000	 88.682748 
840.000000	 88.748304 
839.000000	 88.768581 
838.000000	 88.737632 
837.000000	 88.659103 
836.000000	 88.552184 
835.000000	 88.440204 
834.000000	 88.328859 
833.000000	 88.205653 
832.000000	 88.063866 
831.000000	 87.918224 
830.000000	 87.794570 
829.000000	 87.711865 
828.000000	 87.673177 
827.000000	 87.660440 
826.000000	 87.636938 
825.000000	 87.573579 
824.000000	 87.481241 
823.000000	 87.403604 
822.000000	 87.370318 
821.000000	 87.368284 
820.000000	 87.362367 
819.000000	 87.331663 
818.000000	 87.283457 
817.000000	 87.243208 
816.000000	 87.234026 
815.000000	 87.258458 
814.000000	 87.298625 
813.000000	 87.338457 
812.000000	 87.380739 
811.000000	 87.433241 
810.000000	 87.484004 
809.000000	 87.505703 
808.000000	 87.486392 
807.000000	 87.445899 
806.000000	 87.419859 
805.000000	 87.432489 
804.000000	 87.480378 
803.000000	 87.532708 
802.000000	 87.552231 
801.000000	 87.530512 
800.000000	 87.502082 
799.000000	 87.512728 
798.000000	 87.574006 
797.000000	 87.657733 
796.000000	 87.730070 
795.000000	 87.776385 
794.000000	 87.796696 
793.000000	 87.796767 
792.000000	 87.789814 
791.000000	 87.794386 
790.000000	 87.823291 
789.000000	 87.878948 
788.000000	 87.957078 
787.000000	 88.044707 
786.000000	 88.117431 
785.000000	 88.153460 
784.000000	 88.154449 
783.000000	 88.144273 
782.000000	 88.146543 
781.000000	 88.170957 
780.000000	 88.218130 
779.000000	 88.283300 
778.000000	 88.352947 
777.000000	 88.409924 
776.000000	 88.446818 
775.000000	 88.469079 
774.000000	 88.487286 
773.000000	 88.514787 
772.000000	 88.567882 
771.000000	 88.651797 
770.000000	 88.743905 
769.000000	 88.806076 
768.000000	 88.822299 
767.000000	 88.817469 
766.000000	 88.834032 
765.000000	 88.893573 
764.000000	 88.982069 
763.000000	 89.066960 
762.000000	 89.126988 
761.000000	 89.168910 
760.000000	 89.214422 
759.000000	 89.271317 
758.000000	 89.326793 
757.000000	 89.371991 
756.000000	 89.417378 
755.000000	 89.471157 
754.000000	 89.516981 
753.000000	 89.534788 
752.000000	 89.536573 
751.000000	 89.557095 
750.000000	 89.608973 
749.000000	 89.669109 
748.000000	 89.713898 
747.000000	 89.747717 
746.000000	 89.787655 
745.000000	 89.835887 
744.000000	 89.879443 
743.000000	 89.908595 
742.000000	 89.925925 
741.000000	 89.941779 
740.000000	 89.965060 
739.000000	 89.994443 
738.000000	 90.018488 
737.000000	 90.031719 
736.000000	 90.049977 
735.000000	 90.098628 
734.000000	 90.181492 
733.000000	 90.269365 
732.000000	 90.323893 
731.000000	 90.329325 
730.000000	 90.301398 
729.000000	 90.270825 
728.000000	 90.258239 
727.000000	 90.259733 
726.000000	 90.256760 
725.000000	 90.242287 
724.000000	 90.230089 
723.000000	 90.233449 
722.000000	 90.247416 
721.000000	 90.264173 
720.000000	 90.293279 
719.000000	 90.344673 
718.000000	 90.400676 
717.000000	 90.432722 
716.000000	 90.441043 
715.000000	 90.454135 
714.000000	 90.487862 
713.000000	 90.526487 
712.000000	 90.551447 
711.000000	 90.567692 
710.000000	 90.590152 
709.000000	 90.620818 
708.000000	 90.650875 
707.000000	 90.671576 
706.000000	 90.672582 
705.000000	 90.645130 
704.000000	 90.600892 
703.000000	 90.575813 
702.000000	 90.598622 
701.000000	 90.658884 
700.000000	 90.716034 
699.000000	 90.736779 
698.000000	 90.717519 
697.000000	 90.677098 
696.000000	 90.637409 
695.000000	 90.610265 
694.000000	 90.597975 
693.000000	 90.603036 
692.000000	 90.632258 
691.000000	 90.687652 
690.000000	 90.758439 
689.000000	 90.830674 
688.000000	 90.898404 
687.000000	 90.954084 
686.000000	 90.980858 
685.000000	 90.974847 
684.000000	 90.964102 
683.000000	 90.978636 
682.000000	 91.006757 
681.000000	 91.009696 
680.000000	 90.978064 
679.000000	 90.940558 
678.000000	 90.910083 
677.000000	 90.858158 
676.000000	 90.764237 
675.000000	 90.660625 
674.000000	 90.595498 
673.000000	 90.578386 
672.000000	 90.590271 
671.000000	 90.628303 
670.000000	 90.707766 
669.000000	 90.834436 
668.000000	 90.963559 
667.000000	 90.987940 
666.000000	 90.905202 
665.000000	 90.803924 
664.000000	 90.722364 
663.000000	 90.661415 
662.000000	 90.622097 
661.000000	 90.609184 
660.000000	 90.629545 
659.000000	 90.686571 
658.000000	 90.769449 
657.000000	 90.854518 
656.000000	 90.926951 
655.000000	 90.991010 
654.000000	 91.063799 
653.000000	 91.160331 
652.000000	 91.291206 
651.000000	 91.426919 
650.000000	 91.513176 

