PE IR                   SPECTRUM    ASCII       PEDS        1.60        
  -1
~SP.SP
18/03/14
13:55:19.00
18/03/14
13:55:19.00
pili

650.000000
4









SPECTRUM 100,CPU32 MAIN 00.02.8200 12-DECEMBER-2006 10:00:00
MIR TGS
MIR
OPTKBR
78890
0.200000

4.000000
STRONG
RATIO
SPECTRUM
MAGNITUDE
UNIVERSAL ATR
DOUBLE

COMBINED


0


#HDR
-1
-1
#GR
CM-1
%T
0.00002384185791015625
0.0
4000.000000
-1.000000
3351
8
99.921245
95.034100
#DATA
4000.000000	99.725096 
3999.000000	99.724661 
3998.000000	99.726809 
3997.000000	99.729783 
3996.000000	99.732112 
3995.000000	99.733125 
3994.000000	99.733416 
3993.000000	99.733484 
3992.000000	99.732465 
3991.000000	99.727998 
3990.000000	99.718513 
3989.000000	99.706037 
3988.000000	99.696109 
3987.000000	99.694088 
3986.000000	99.701051 
3985.000000	99.712638 
3984.000000	99.721711 
3983.000000	99.723198 
3982.000000	99.717834 
3981.000000	99.711487 
3980.000000	99.709818 
3979.000000	99.713363 
3978.000000	99.717975 
3977.000000	99.719356 
3976.000000	99.716409 
3975.000000	99.710483 
3974.000000	99.702916 
3973.000000	99.694080 
3972.000000	99.684322 
3971.000000	99.675302 
3970.000000	99.669953 
3969.000000	99.670773 
3968.000000	99.677570 
3967.000000	99.686656 
3966.000000	99.693089 
3965.000000	99.694291 
3964.000000	99.691667 
3963.000000	99.689660 
3962.000000	99.693470 
3961.000000	99.705926 
3960.000000	99.724367 
3959.000000	99.740607 
3958.000000	99.745661 
3957.000000	99.736673 
3956.000000	99.719861 
3955.000000	99.705700 
3954.000000	99.700960 
3953.000000	99.704271 
3952.000000	99.708244 
3951.000000	99.705790 
3950.000000	99.695565 
3949.000000	99.683354 
3948.000000	99.677312 
3947.000000	99.681012 
3946.000000	99.691004 
3945.000000	99.700277 
3944.000000	99.703862 
3943.000000	99.701908 
3942.000000	99.698887 
3941.000000	99.698788 
3940.000000	99.700765 
3939.000000	99.700554 
3938.000000	99.695875 
3937.000000	99.689120 
3936.000000	99.684275 
3935.000000	99.681726 
3934.000000	99.678964 
3933.000000	99.675746 
3932.000000	99.676111 
3931.000000	99.682762 
3930.000000	99.692553 
3929.000000	99.701041 
3928.000000	99.708047 
3927.000000	99.716110 
3926.000000	99.725052 
3925.000000	99.729905 
3924.000000	99.726316 
3923.000000	99.716134 
3922.000000	99.705323 
3921.000000	99.698900 
3920.000000	99.697911 
3919.000000	99.699844 
3918.000000	99.700842 
3917.000000	99.698339 
3916.000000	99.692887 
3915.000000	99.687306 
3914.000000	99.684260 
3913.000000	99.684753 
3912.000000	99.687906 
3911.000000	99.691831 
3910.000000	99.694056 
3909.000000	99.693234 
3908.000000	99.691422 
3907.000000	99.692472 
3906.000000	99.698140 
3905.000000	99.704131 
3904.000000	99.703415 
3903.000000	99.695214 
3902.000000	99.686219 
3901.000000	99.682616 
3900.000000	99.684653 
3899.000000	99.687586 
3898.000000	99.687316 
3897.000000	99.683201 
3896.000000	99.677445 
3895.000000	99.675460 
3894.000000	99.683725 
3893.000000	99.703021 
3892.000000	99.723674 
3891.000000	99.733279 
3890.000000	99.730928 
3889.000000	99.724882 
3888.000000	99.721591 
3887.000000	99.719943 
3886.000000	99.714215 
3885.000000	99.702341 
3884.000000	99.689200 
3883.000000	99.680330 
3882.000000	99.677514 
3881.000000	99.679951 
3880.000000	99.686282 
3879.000000	99.694031 
3878.000000	99.701142 
3877.000000	99.707044 
3876.000000	99.711911 
3875.000000	99.713559 
3874.000000	99.708004 
3873.000000	99.694974 
3872.000000	99.680572 
3871.000000	99.672076 
3870.000000	99.672494 
3869.000000	99.681747 
3868.000000	99.695313 
3867.000000	99.703847 
3866.000000	99.701445 
3865.000000	99.692807 
3864.000000	99.689090 
3863.000000	99.694880 
3862.000000	99.702367 
3861.000000	99.703368 
3860.000000	99.698966 
3859.000000	99.695107 
3858.000000	99.694521 
3857.000000	99.696160 
3856.000000	99.699991 
3855.000000	99.707524 
3854.000000	99.707950 
3853.000000	99.694048 
3852.000000	99.682075 
3851.000000	99.685032 
3850.000000	99.695268 
3849.000000	99.702479 
3848.000000	99.702020 
3847.000000	99.695687 
3846.000000	99.687674 
3845.000000	99.681715 
3844.000000	99.680776 
3843.000000	99.685839 
3842.000000	99.693027 
3841.000000	99.695874 
3840.000000	99.689904 
3839.000000	99.676341 
3838.000000	99.662681 
3837.000000	99.656933 
3836.000000	99.662149 
3835.000000	99.676139 
3834.000000	99.694339 
3833.000000	99.713284 
3832.000000	99.730697 
3831.000000	99.744303 
3830.000000	99.751867 
3829.000000	99.751171 
3828.000000	99.741980 
3827.000000	99.728932 
3826.000000	99.719434 
3825.000000	99.718307 
3824.000000	99.724633 
3823.000000	99.732899 
3822.000000	99.733881 
3821.000000	99.722827 
3820.000000	99.709571 
3819.000000	99.706355 
3818.000000	99.712611 
3817.000000	99.718501 
3816.000000	99.716218 
3815.000000	99.707832 
3814.000000	99.699605 
3813.000000	99.693343 
3812.000000	99.688149 
3811.000000	99.685787 
3810.000000	99.689343 
3809.000000	99.698438 
3808.000000	99.706451 
3807.000000	99.706783 
3806.000000	99.701087 
3805.000000	99.696086 
3804.000000	99.694196 
3803.000000	99.693720 
3802.000000	99.691928 
3801.000000	99.690012 
3800.000000	99.693654 
3799.000000	99.702280 
3798.000000	99.707885 
3797.000000	99.706333 
3796.000000	99.702648 
3795.000000	99.704634 
3794.000000	99.713072 
3793.000000	99.721263 
3792.000000	99.722428 
3791.000000	99.715665 
3790.000000	99.705097 
3789.000000	99.695864 
3788.000000	99.691707 
3787.000000	99.693609 
3786.000000	99.698742 
3785.000000	99.701197 
3784.000000	99.696123 
3783.000000	99.683995 
3782.000000	99.670443 
3781.000000	99.662339 
3780.000000	99.663052 
3779.000000	99.671625 
3778.000000	99.684338 
3777.000000	99.696185 
3776.000000	99.702240 
3775.000000	99.700599 
3774.000000	99.694148 
3773.000000	99.688473 
3772.000000	99.687687 
3771.000000	99.691351 
3770.000000	99.695721 
3769.000000	99.698646 
3768.000000	99.700295 
3767.000000	99.698769 
3766.000000	99.692102 
3765.000000	99.683516 
3764.000000	99.680513 
3763.000000	99.688056 
3762.000000	99.704221 
3761.000000	99.722583 
3760.000000	99.736464 
3759.000000	99.743252 
3758.000000	99.744050 
3757.000000	99.740387 
3756.000000	99.732406 
3755.000000	99.718420 
3754.000000	99.696271 
3753.000000	99.667288 
3752.000000	99.639846 
3751.000000	99.625142 
3750.000000	99.628491 
3749.000000	99.644143 
3748.000000	99.660501 
3747.000000	99.667675 
3746.000000	99.661490 
3745.000000	99.642482 
3744.000000	99.620806 
3743.000000	99.607395 
3742.000000	99.598043 
3741.000000	99.581968 
3740.000000	99.559277 
3739.000000	99.541725 
3738.000000	99.541268 
3737.000000	99.557511 
3736.000000	99.581589 
3735.000000	99.608018 
3734.000000	99.633213 
3733.000000	99.647695 
3732.000000	99.642939 
3731.000000	99.622682 
3730.000000	99.599009 
3729.000000	99.580159 
3728.000000	99.567394 
3727.000000	99.559248 
3726.000000	99.555901 
3725.000000	99.559187 
3724.000000	99.569810 
3723.000000	99.586341 
3722.000000	99.605758 
3721.000000	99.624923 
3720.000000	99.639154 
3719.000000	99.643841 
3718.000000	99.639476 
3717.000000	99.631440 
3716.000000	99.626074 
3715.000000	99.625822 
3714.000000	99.629703 
3713.000000	99.637424 
3712.000000	99.648374 
3711.000000	99.661192 
3710.000000	99.673170 
3709.000000	99.681092 
3708.000000	99.683784 
3707.000000	99.681540 
3706.000000	99.676025 
3705.000000	99.670198 
3704.000000	99.667564 
3703.000000	99.670183 
3702.000000	99.675773 
3701.000000	99.679830 
3700.000000	99.679285 
3699.000000	99.672447 
3698.000000	99.659991 
3697.000000	99.645997 
3696.000000	99.637082 
3695.000000	99.638601 
3694.000000	99.651574 
3693.000000	99.673985 
3692.000000	99.702371 
3691.000000	99.730424 
3690.000000	99.745288 
3689.000000	99.736674 
3688.000000	99.711819 
3687.000000	99.687708 
3686.000000	99.673021 
3685.000000	99.666066 
3684.000000	99.661610 
3683.000000	99.656658 
3682.000000	99.651824 
3681.000000	99.648232 
3680.000000	99.645886 
3679.000000	99.644191 
3678.000000	99.643715 
3677.000000	99.646123 
3676.000000	99.648444 
3675.000000	99.650272 
3674.000000	99.657675 
3673.000000	99.670375 
3672.000000	99.679328 
3671.000000	99.678829 
3670.000000	99.669435 
3669.000000	99.657887 
3668.000000	99.650954 
3667.000000	99.649704 
3666.000000	99.654732 
3665.000000	99.668762 
3664.000000	99.691245 
3663.000000	99.714591 
3662.000000	99.726905 
3661.000000	99.719384 
3660.000000	99.693185 
3659.000000	99.659915 
3658.000000	99.637232 
3657.000000	99.637933 
3656.000000	99.659799 
3655.000000	99.687912 
3654.000000	99.705639 
3653.000000	99.703566 
3652.000000	99.681920 
3651.000000	99.648104 
3650.000000	99.609216 
3649.000000	99.572753 
3648.000000	99.551841 
3647.000000	99.556432 
3646.000000	99.582210 
3645.000000	99.614624 
3644.000000	99.639291 
3643.000000	99.649885 
3642.000000	99.650128 
3641.000000	99.648126 
3640.000000	99.649630 
3639.000000	99.654522 
3638.000000	99.659284 
3637.000000	99.660690 
3636.000000	99.657772 
3635.000000	99.652897 
3634.000000	99.650147 
3633.000000	99.650903 
3632.000000	99.649622 
3631.000000	99.635816 
3630.000000	99.604461 
3629.000000	99.567841 
3628.000000	99.551475 
3627.000000	99.565550 
3626.000000	99.594392 
3625.000000	99.618829 
3624.000000	99.634439 
3623.000000	99.649963 
3622.000000	99.674457 
3621.000000	99.705175 
3620.000000	99.726355 
3619.000000	99.724503 
3618.000000	99.703829 
3617.000000	99.678095 
3616.000000	99.655189 
3615.000000	99.636222 
3614.000000	99.620822 
3613.000000	99.609872 
3612.000000	99.603689 
3611.000000	99.599371 
3610.000000	99.593278 
3609.000000	99.586534 
3608.000000	99.584837 
3607.000000	99.592075 
3606.000000	99.605337 
3605.000000	99.617448 
3604.000000	99.623596 
3603.000000	99.624754 
3602.000000	99.626772 
3601.000000	99.635180 
3600.000000	99.648897 
3599.000000	99.660496 
3598.000000	99.663758 
3597.000000	99.659210 
3596.000000	99.653073 
3595.000000	99.650260 
3594.000000	99.648912 
3593.000000	99.643743 
3592.000000	99.632477 
3591.000000	99.617928 
3590.000000	99.606738 
3589.000000	99.605951 
3588.000000	99.616897 
3587.000000	99.632898 
3586.000000	99.645807 
3585.000000	99.652252 
3584.000000	99.655409 
3583.000000	99.661399 
3582.000000	99.674299 
3581.000000	99.690987 
3580.000000	99.703205 
3579.000000	99.705951 
3578.000000	99.702475 
3577.000000	99.699824 
3576.000000	99.700066 
3575.000000	99.699252 
3574.000000	99.693357 
3573.000000	99.683615 
3572.000000	99.674618 
3571.000000	99.668868 
3570.000000	99.665058 
3569.000000	99.661082 
3568.000000	99.656554 
3567.000000	99.651787 
3566.000000	99.646932 
3565.000000	99.643142 
3564.000000	99.643409 
3563.000000	99.650970 
3562.000000	99.665393 
3561.000000	99.680547 
3560.000000	99.688421 
3559.000000	99.685885 
3558.000000	99.677318 
3557.000000	99.670383 
3556.000000	99.669236 
3555.000000	99.671286 
3554.000000	99.669828 
3553.000000	99.660417 
3552.000000	99.646392 
3551.000000	99.636598 
3550.000000	99.637117 
3549.000000	99.646748 
3548.000000	99.660472 
3547.000000	99.674459 
3546.000000	99.686448 
3545.000000	99.693092 
3544.000000	99.691540 
3543.000000	99.684057 
3542.000000	99.677307 
3541.000000	99.675485 
3540.000000	99.675487 
3539.000000	99.669951 
3538.000000	99.655534 
3537.000000	99.637078 
3536.000000	99.624256 
3535.000000	99.623880 
3534.000000	99.635831 
3533.000000	99.654576 
3532.000000	99.673019 
3531.000000	99.684939 
3530.000000	99.685819 
3529.000000	99.674585 
3528.000000	99.655919 
3527.000000	99.639004 
3526.000000	99.631161 
3525.000000	99.632841 
3524.000000	99.639774 
3523.000000	99.649556 
3522.000000	99.663887 
3521.000000	99.683738 
3520.000000	99.704900 
3519.000000	99.719957 
3518.000000	99.724391 
3517.000000	99.719334 
3516.000000	99.709014 
3515.000000	99.696923 
3514.000000	99.684348 
3513.000000	99.671491 
3512.000000	99.659566 
3511.000000	99.652009 
3510.000000	99.652552 
3509.000000	99.660692 
3508.000000	99.669920 
3507.000000	99.672509 
3506.000000	99.666765 
3505.000000	99.658072 
3504.000000	99.652637 
3503.000000	99.650792 
3502.000000	99.648602 
3501.000000	99.645122 
3500.000000	99.644877 
3499.000000	99.652327 
3498.000000	99.665719 
3497.000000	99.677988 
3496.000000	99.683260 
3495.000000	99.681151 
3494.000000	99.674684 
3493.000000	99.666100 
3492.000000	99.656290 
3491.000000	99.646786 
3490.000000	99.640016 
3489.000000	99.637226 
3488.000000	99.637586 
3487.000000	99.640205 
3486.000000	99.645700 
3485.000000	99.654035 
3484.000000	99.661516 
3483.000000	99.662450 
3482.000000	99.655693 
3481.000000	99.648532 
3480.000000	99.651496 
3479.000000	99.668497 
3478.000000	99.692764 
3477.000000	99.712568 
3476.000000	99.719838 
3475.000000	99.713843 
3474.000000	99.698780 
3473.000000	99.679910 
3472.000000	99.661786 
3471.000000	99.647517 
3470.000000	99.638028 
3469.000000	99.633022 
3468.000000	99.633388 
3467.000000	99.641334 
3466.000000	99.657023 
3465.000000	99.676077 
3464.000000	99.691923 
3463.000000	99.700078 
3462.000000	99.699616 
3461.000000	99.692393 
3460.000000	99.683498 
3459.000000	99.681198 
3458.000000	99.691855 
3457.000000	99.712512 
3456.000000	99.731456 
3455.000000	99.738218 
3454.000000	99.732331 
3453.000000	99.720791 
3452.000000	99.709016 
3451.000000	99.697136 
3450.000000	99.683933 
3449.000000	99.671604 
3448.000000	99.665503 
3447.000000	99.669938 
3446.000000	99.683907 
3445.000000	99.700477 
3444.000000	99.710856 
3443.000000	99.710344 
3442.000000	99.701590 
3441.000000	99.692220 
3440.000000	99.689120 
3439.000000	99.693821 
3438.000000	99.701166 
3437.000000	99.702103 
3436.000000	99.690863 
3435.000000	99.670917 
3434.000000	99.652374 
3433.000000	99.642228 
3432.000000	99.638605 
3431.000000	99.636281 
3430.000000	99.634942 
3429.000000	99.638984 
3428.000000	99.650374 
3427.000000	99.665353 
3426.000000	99.678708 
3425.000000	99.688467 
3424.000000	99.695281 
3423.000000	99.698909 
3422.000000	99.697283 
3421.000000	99.689368 
3420.000000	99.678554 
3419.000000	99.672182 
3418.000000	99.676354 
3417.000000	99.690678 
3416.000000	99.708531 
3415.000000	99.722533 
3414.000000	99.728682 
3413.000000	99.725408 
3412.000000	99.711941 
3411.000000	99.690662 
3410.000000	99.669317 
3409.000000	99.656641 
3408.000000	99.654618 
3407.000000	99.657444 
3406.000000	99.659538 
3405.000000	99.662327 
3404.000000	99.671235 
3403.000000	99.686804 
3402.000000	99.701094 
3401.000000	99.704089 
3400.000000	99.693512 
3399.000000	99.677694 
3398.000000	99.668071 
3397.000000	99.668342 
3396.000000	99.671770 
3395.000000	99.670068 
3394.000000	99.663656 
3393.000000	99.660713 
3392.000000	99.666475 
3391.000000	99.676497 
3390.000000	99.682230 
3389.000000	99.680916 
3388.000000	99.677846 
3387.000000	99.680153 
3386.000000	99.690502 
3385.000000	99.705435 
3384.000000	99.717510 
3383.000000	99.719423 
3382.000000	99.709097 
3381.000000	99.691678 
3380.000000	99.674901 
3379.000000	99.661957 
3378.000000	99.650360 
3377.000000	99.638248 
3376.000000	99.629120 
3375.000000	99.628596 
3374.000000	99.638100 
3373.000000	99.653572 
3372.000000	99.669203 
3371.000000	99.680621 
3370.000000	99.685466 
3369.000000	99.683725 
3368.000000	99.678157 
3367.000000	99.672777 
3366.000000	99.670113 
3365.000000	99.670303 
3364.000000	99.672293 
3363.000000	99.674573 
3362.000000	99.675432 
3361.000000	99.674814 
3360.000000	99.675898 
3359.000000	99.681969 
3358.000000	99.690527 
3357.000000	99.693232 
3356.000000	99.684067 
3355.000000	99.666180 
3354.000000	99.648514 
3353.000000	99.637086 
3352.000000	99.631760 
3351.000000	99.629803 
3350.000000	99.629250 
3349.000000	99.629266 
3348.000000	99.630716 
3347.000000	99.636804 
3346.000000	99.650146 
3345.000000	99.668015 
3344.000000	99.682819 
3343.000000	99.688534 
3342.000000	99.685035 
3341.000000	99.676079 
3340.000000	99.666065 
3339.000000	99.659746 
3338.000000	99.661155 
3337.000000	99.669160 
3336.000000	99.675863 
3335.000000	99.672954 
3334.000000	99.659554 
3333.000000	99.641953 
3332.000000	99.627098 
3331.000000	99.618921 
3330.000000	99.619688 
3329.000000	99.630449 
3328.000000	99.648379 
3327.000000	99.666074 
3326.000000	99.676257 
3325.000000	99.677324 
3324.000000	99.673659 
3323.000000	99.670710 
3322.000000	99.670189 
3321.000000	99.669905 
3320.000000	99.667483 
3319.000000	99.663184 
3318.000000	99.658588 
3317.000000	99.653823 
3316.000000	99.648284 
3315.000000	99.643947 
3314.000000	99.644848 
3313.000000	99.651325 
3312.000000	99.656895 
3311.000000	99.653738 
3310.000000	99.641033 
3309.000000	99.625916 
3308.000000	99.616149 
3307.000000	99.613376 
3306.000000	99.613660 
3305.000000	99.613358 
3304.000000	99.613679 
3303.000000	99.619113 
3302.000000	99.630903 
3301.000000	99.643045 
3300.000000	99.647594 
3299.000000	99.644323 
3298.000000	99.641530 
3297.000000	99.645129 
3296.000000	99.650477 
3295.000000	99.649256 
3294.000000	99.641999 
3293.000000	99.638182 
3292.000000	99.643872 
3291.000000	99.654069 
3290.000000	99.658957 
3289.000000	99.654103 
3288.000000	99.642830 
3287.000000	99.631845 
3286.000000	99.626706 
3285.000000	99.629116 
3284.000000	99.635907 
3283.000000	99.641571 
3282.000000	99.643420 
3281.000000	99.643647 
3280.000000	99.645889 
3279.000000	99.651211 
3278.000000	99.658042 
3277.000000	99.663906 
3276.000000	99.666038 
3275.000000	99.662535 
3274.000000	99.655166 
3273.000000	99.649798 
3272.000000	99.651687 
3271.000000	99.660131 
3270.000000	99.668787 
3269.000000	99.671313 
3268.000000	99.666491 
3267.000000	99.658521 
3266.000000	99.652842 
3265.000000	99.651358 
3264.000000	99.651709 
3263.000000	99.651643 
3262.000000	99.652857 
3261.000000	99.658361 
3260.000000	99.666719 
3259.000000	99.672173 
3258.000000	99.671725 
3257.000000	99.669142 
3256.000000	99.669747 
3255.000000	99.673282 
3254.000000	99.674642 
3253.000000	99.670528 
3252.000000	99.662944 
3251.000000	99.656418 
3250.000000	99.653440 
3249.000000	99.652452 
3248.000000	99.649043 
3247.000000	99.639872 
3246.000000	99.627022 
3245.000000	99.618107 
3244.000000	99.620458 
3243.000000	99.634805 
3242.000000	99.654878 
3241.000000	99.672351 
3240.000000	99.681839 
3239.000000	99.682824 
3238.000000	99.678343 
3237.000000	99.671324 
3236.000000	99.661777 
3235.000000	99.648820 
3234.000000	99.635870 
3233.000000	99.630794 
3232.000000	99.638220 
3231.000000	99.653396 
3230.000000	99.666788 
3229.000000	99.674150 
3228.000000	99.678912 
3227.000000	99.684685 
3226.000000	99.689119 
3225.000000	99.686689 
3224.000000	99.675059 
3223.000000	99.656938 
3222.000000	99.637349 
3221.000000	99.621290 
3220.000000	99.613058 
3219.000000	99.615157 
3218.000000	99.626815 
3217.000000	99.644494 
3216.000000	99.664478 
3215.000000	99.684314 
3214.000000	99.701161 
3213.000000	99.709842 
3212.000000	99.705210 
3211.000000	99.688219 
3210.000000	99.668388 
3209.000000	99.657473 
3208.000000	99.659697 
3207.000000	99.669357 
3206.000000	99.678089 
3205.000000	99.682647 
3204.000000	99.684851 
3203.000000	99.686100 
3202.000000	99.684381 
3201.000000	99.676952 
3200.000000	99.664936 
3199.000000	99.654421 
3198.000000	99.652036 
3197.000000	99.658335 
3196.000000	99.666336 
3195.000000	99.668527 
3194.000000	99.665246 
3193.000000	99.664087 
3192.000000	99.671056 
3191.000000	99.684998 
3190.000000	99.701001 
3189.000000	99.715268 
3188.000000	99.724140 
3187.000000	99.722498 
3186.000000	99.708530 
3185.000000	99.689400 
3184.000000	99.677288 
3183.000000	99.678017 
3182.000000	99.686015 
3181.000000	99.691309 
3180.000000	99.689555 
3179.000000	99.684270 
3178.000000	99.680682 
3177.000000	99.678931 
3176.000000	99.673666 
3175.000000	99.660419 
3174.000000	99.642089 
3173.000000	99.627631 
3172.000000	99.623412 
3171.000000	99.627440 
3170.000000	99.633747 
3169.000000	99.640380 
3168.000000	99.649486 
3167.000000	99.660539 
3166.000000	99.668309 
3165.000000	99.669266 
3164.000000	99.666504 
3163.000000	99.665640 
3162.000000	99.668188 
3161.000000	99.672058 
3160.000000	99.676954 
3159.000000	99.684916 
3158.000000	99.694789 
3157.000000	99.700198 
3156.000000	99.696182 
3155.000000	99.686123 
3154.000000	99.678464 
3153.000000	99.676281 
3152.000000	99.673491 
3151.000000	99.663416 
3150.000000	99.648899 
3149.000000	99.640659 
3148.000000	99.645755 
3147.000000	99.660083 
3146.000000	99.672787 
3145.000000	99.676360 
3144.000000	99.671941 
3143.000000	99.666279 
3142.000000	99.664574 
3141.000000	99.665360 
3140.000000	99.662045 
3139.000000	99.650636 
3138.000000	99.636048 
3137.000000	99.628734 
3136.000000	99.634107 
3135.000000	99.647155 
3134.000000	99.658626 
3133.000000	99.664359 
3132.000000	99.666625 
3131.000000	99.668418 
3130.000000	99.669726 
3129.000000	99.669087 
3128.000000	99.666140 
3127.000000	99.662208 
3126.000000	99.659677 
3125.000000	99.660535 
3124.000000	99.664120 
3123.000000	99.666795 
3122.000000	99.665817 
3121.000000	99.663520 
3120.000000	99.665711 
3119.000000	99.675020 
3118.000000	99.686837 
3117.000000	99.692893 
3116.000000	99.689001 
3115.000000	99.679124 
3114.000000	99.671601 
3113.000000	99.670900 
3112.000000	99.673372 
3111.000000	99.672175 
3110.000000	99.665947 
3109.000000	99.660353 
3108.000000	99.660434 
3107.000000	99.664281 
3106.000000	99.666401 
3105.000000	99.665606 
3104.000000	99.666449 
3103.000000	99.673185 
3102.000000	99.684476 
3101.000000	99.694335 
3100.000000	99.697222 
3099.000000	99.692642 
3098.000000	99.686092 
3097.000000	99.684778 
3096.000000	99.690490 
3095.000000	99.697209 
3094.000000	99.697919 
3093.000000	99.692962 
3092.000000	99.689065 
3091.000000	99.690790 
3090.000000	99.696286 
3089.000000	99.701428 
3088.000000	99.703842 
3087.000000	99.701414 
3086.000000	99.691201 
3085.000000	99.673669 
3084.000000	99.655406 
3083.000000	99.643542 
3082.000000	99.638671 
3081.000000	99.637022 
3080.000000	99.638680 
3079.000000	99.648353 
3078.000000	99.666487 
3077.000000	99.684049 
3076.000000	99.690191 
3075.000000	99.683591 
3074.000000	99.673137 
3073.000000	99.668171 
3072.000000	99.670756 
3071.000000	99.677412 
3070.000000	99.684780 
3069.000000	99.691526 
3068.000000	99.696764 
3067.000000	99.699402 
3066.000000	99.699139 
3065.000000	99.696555 
3064.000000	99.692234 
3063.000000	99.687175 
3062.000000	99.683902 
3061.000000	99.685089 
3060.000000	99.689920 
3059.000000	99.693151 
3058.000000	99.689850 
3057.000000	99.681148 
3056.000000	99.673987 
3055.000000	99.674515 
3054.000000	99.682539 
3053.000000	99.692924 
3052.000000	99.701358 
3051.000000	99.707427 
3050.000000	99.711925 
3049.000000	99.712789 
3048.000000	99.705790 
3047.000000	99.689884 
3046.000000	99.670551 
3045.000000	99.656451 
3044.000000	99.652833 
3043.000000	99.659026 
3042.000000	99.671340 
3041.000000	99.685939 
3040.000000	99.698646 
3039.000000	99.705085 
3038.000000	99.704143 
3037.000000	99.700533 
3036.000000	99.701160 
3035.000000	99.708328 
3034.000000	99.717880 
3033.000000	99.724134 
3032.000000	99.725131 
3031.000000	99.722677 
3030.000000	99.719037 
3029.000000	99.715027 
3028.000000	99.710624 
3027.000000	99.705960 
3026.000000	99.701014 
3025.000000	99.694786 
3024.000000	99.685982 
3023.000000	99.675810 
3022.000000	99.669687 
3021.000000	99.673821 
3020.000000	99.688189 
3019.000000	99.703938 
3018.000000	99.710273 
3017.000000	99.704750 
3016.000000	99.695505 
3015.000000	99.692656 
3014.000000	99.698563 
3013.000000	99.706756 
3012.000000	99.709046 
3011.000000	99.702652 
3010.000000	99.691401 
3009.000000	99.681639 
3008.000000	99.677497 
3007.000000	99.679089 
3006.000000	99.683795 
3005.000000	99.688472 
3004.000000	99.691058 
3003.000000	99.691489 
3002.000000	99.691503 
3001.000000	99.692698 
3000.000000	99.694264 
2999.000000	99.693628 
2998.000000	99.689809 
2997.000000	99.684804 
2996.000000	99.680942 
2995.000000	99.678548 
2994.000000	99.677621 
2993.000000	99.679490 
2992.000000	99.683819 
2991.000000	99.685600 
2990.000000	99.679443 
2989.000000	99.667573 
2988.000000	99.659772 
2987.000000	99.663663 
2986.000000	99.677482 
2985.000000	99.693743 
2984.000000	99.706790 
2983.000000	99.714146 
2982.000000	99.713377 
2981.000000	99.702503 
2980.000000	99.684164 
2979.000000	99.666349 
2978.000000	99.657060 
2977.000000	99.658566 
2976.000000	99.666921 
2975.000000	99.676169 
2974.000000	99.682921 
2973.000000	99.687622 
2972.000000	99.691942 
2971.000000	99.695315 
2970.000000	99.694888 
2969.000000	99.689146 
2968.000000	99.680216 
2967.000000	99.671558 
2966.000000	99.664320 
2965.000000	99.657421 
2964.000000	99.650436 
2963.000000	99.644461 
2962.000000	99.640243 
2961.000000	99.637499 
2960.000000	99.636857 
2959.000000	99.640655 
2958.000000	99.649996 
2957.000000	99.661585 
2956.000000	99.669640 
2955.000000	99.671808 
2954.000000	99.672005 
2953.000000	99.675687 
2952.000000	99.682671 
2951.000000	99.686471 
2950.000000	99.681427 
2949.000000	99.669040 
2948.000000	99.656011 
2947.000000	99.647583 
2946.000000	99.644566 
2945.000000	99.645568 
2944.000000	99.648882 
2943.000000	99.651900 
2942.000000	99.651745 
2941.000000	99.648010 
2940.000000	99.642927 
2939.000000	99.637426 
2938.000000	99.628894 
2937.000000	99.614710 
2936.000000	99.596655 
2935.000000	99.579960 
2934.000000	99.568713 
2933.000000	99.563637 
2932.000000	99.563112 
2931.000000	99.564490 
2930.000000	99.565180 
2929.000000	99.564560 
2928.000000	99.564854 
2927.000000	99.568690 
2926.000000	99.575953 
2925.000000	99.583878 
2924.000000	99.589428 
2923.000000	99.590383 
2922.000000	99.585529 
2921.000000	99.576259 
2920.000000	99.567407 
2919.000000	99.564055 
2918.000000	99.567143 
2917.000000	99.573879 
2916.000000	99.582000 
2915.000000	99.591334 
2914.000000	99.601319 
2913.000000	99.610051 
2912.000000	99.616990 
2911.000000	99.623916 
2910.000000	99.631259 
2909.000000	99.635292 
2908.000000	99.631553 
2907.000000	99.620551 
2906.000000	99.608346 
2905.000000	99.601703 
2904.000000	99.604071 
2903.000000	99.614590 
2902.000000	99.629283 
2901.000000	99.641131 
2900.000000	99.643484 
2899.000000	99.635651 
2898.000000	99.624302 
2897.000000	99.618066 
2896.000000	99.620018 
2895.000000	99.626497 
2894.000000	99.632858 
2893.000000	99.638571 
2892.000000	99.645768 
2891.000000	99.654624 
2890.000000	99.662365 
2889.000000	99.666691 
2888.000000	99.668184 
2887.000000	99.668653 
2886.000000	99.668587 
2885.000000	99.667382 
2884.000000	99.665119 
2883.000000	99.662725 
2882.000000	99.660800 
2881.000000	99.659671 
2880.000000	99.660596 
2879.000000	99.665500 
2878.000000	99.674673 
2877.000000	99.685128 
2876.000000	99.691920 
2875.000000	99.691387 
2874.000000	99.683579 
2873.000000	99.672233 
2872.000000	99.662499 
2871.000000	99.657949 
2870.000000	99.658810 
2869.000000	99.662264 
2868.000000	99.664231 
2867.000000	99.661662 
2866.000000	99.654613 
2865.000000	99.646594 
2864.000000	99.641728 
2863.000000	99.640536 
2862.000000	99.639294 
2861.000000	99.634545 
2860.000000	99.627377 
2859.000000	99.621725 
2858.000000	99.619349 
2857.000000	99.618728 
2856.000000	99.618674 
2855.000000	99.620247 
2854.000000	99.623903 
2853.000000	99.626999 
2852.000000	99.626437 
2851.000000	99.623051 
2850.000000	99.621401 
2849.000000	99.625285 
2848.000000	99.634909 
2847.000000	99.648317 
2846.000000	99.663569 
2845.000000	99.678422 
2844.000000	99.689291 
2843.000000	99.692788 
2842.000000	99.689162 
2841.000000	99.683498 
2840.000000	99.682364 
2839.000000	99.688401 
2838.000000	99.697876 
2837.000000	99.703641 
2836.000000	99.701047 
2835.000000	99.691651 
2834.000000	99.681679 
2833.000000	99.677043 
2832.000000	99.679405 
2831.000000	99.686255 
2830.000000	99.693885 
2829.000000	99.700038 
2828.000000	99.704355 
2827.000000	99.707382 
2826.000000	99.709771 
2825.000000	99.711981 
2824.000000	99.713868 
2823.000000	99.714455 
2822.000000	99.712817 
2821.000000	99.709523 
2820.000000	99.706575 
2819.000000	99.705287 
2818.000000	99.704617 
2817.000000	99.702242 
2816.000000	99.697116 
2815.000000	99.690422 
2814.000000	99.684185 
2813.000000	99.679686 
2812.000000	99.677306 
2811.000000	99.677224 
2810.000000	99.679651 
2809.000000	99.684287 
2808.000000	99.689559 
2807.000000	99.692837 
2806.000000	99.692543 
2805.000000	99.690662 
2804.000000	99.692077 
2803.000000	99.699797 
2802.000000	99.710998 
2801.000000	99.719307 
2800.000000	99.721084 
2799.000000	99.718101 
2798.000000	99.714102 
2797.000000	99.711169 
2796.000000	99.710400 
2795.000000	99.713242 
2794.000000	99.718973 
2793.000000	99.722127 
2792.000000	99.716439 
2791.000000	99.702422 
2790.000000	99.688441 
2789.000000	99.682620 
2788.000000	99.685298 
2787.000000	99.690693 
2786.000000	99.693917 
2785.000000	99.693925 
2784.000000	99.691006 
2783.000000	99.685023 
2782.000000	99.677187 
2781.000000	99.671222 
2780.000000	99.670899 
2779.000000	99.676957 
2778.000000	99.687000 
2777.000000	99.697439 
2776.000000	99.704920 
2775.000000	99.707287 
2774.000000	99.704786 
2773.000000	99.700029 
2772.000000	99.695742 
2771.000000	99.692768 
2770.000000	99.690966 
2769.000000	99.691136 
2768.000000	99.694627 
2767.000000	99.701350 
2766.000000	99.709548 
2765.000000	99.717358 
2764.000000	99.723228 
2763.000000	99.725148 
2762.000000	99.721578 
2761.000000	99.713833 
2760.000000	99.706068 
2759.000000	99.702039 
2758.000000	99.702841 
2757.000000	99.707865 
2756.000000	99.715806 
2755.000000	99.723635 
2754.000000	99.726737 
2753.000000	99.722472 
2752.000000	99.713071 
2751.000000	99.703500 
2750.000000	99.697158 
2749.000000	99.694774 
2748.000000	99.695964 
2747.000000	99.699430 
2746.000000	99.702436 
2745.000000	99.702900 
2744.000000	99.702301 
2743.000000	99.704226 
2742.000000	99.709692 
2741.000000	99.715890 
2740.000000	99.719773 
2739.000000	99.720492 
2738.000000	99.717953 
2737.000000	99.712287 
2736.000000	99.706577 
2735.000000	99.707141 
2734.000000	99.717561 
2733.000000	99.733090 
2732.000000	99.743769 
2731.000000	99.743402 
2730.000000	99.733943 
2729.000000	99.721766 
2728.000000	99.711942 
2727.000000	99.706496 
2726.000000	99.705790 
2725.000000	99.709600 
2724.000000	99.716946 
2723.000000	99.725744 
2722.000000	99.733190 
2721.000000	99.737111 
2720.000000	99.737361 
2719.000000	99.735445 
2718.000000	99.732522 
2717.000000	99.728691 
2716.000000	99.724579 
2715.000000	99.721716 
2714.000000	99.719662 
2713.000000	99.714628 
2712.000000	99.704292 
2711.000000	99.693659 
2710.000000	99.692191 
2709.000000	99.703304 
2708.000000	99.719291 
2707.000000	99.728987 
2706.000000	99.729077 
2705.000000	99.725837 
2704.000000	99.726812 
2703.000000	99.733259 
2702.000000	99.740375 
2701.000000	99.742575 
2700.000000	99.738021 
2699.000000	99.729479 
2698.000000	99.721519 
2697.000000	99.716380 
2696.000000	99.712557 
2695.000000	99.707849 
2694.000000	99.702874 
2693.000000	99.700130 
2692.000000	99.700344 
2691.000000	99.701921 
2690.000000	99.704073 
2689.000000	99.708062 
2688.000000	99.714311 
2687.000000	99.720333 
2686.000000	99.723152 
2685.000000	99.722485 
2684.000000	99.719833 
2683.000000	99.715451 
2682.000000	99.708314 
2681.000000	99.699073 
2680.000000	99.691430 
2679.000000	99.689944 
2678.000000	99.696595 
2677.000000	99.708601 
2676.000000	99.718859 
2675.000000	99.720095 
2674.000000	99.711106 
2673.000000	99.699186 
2672.000000	99.694410 
2671.000000	99.700712 
2670.000000	99.713291 
2669.000000	99.724282 
2668.000000	99.729155 
2667.000000	99.727769 
2666.000000	99.722466 
2665.000000	99.717100 
2664.000000	99.715856 
2663.000000	99.720013 
2662.000000	99.725778 
2661.000000	99.727008 
2660.000000	99.720325 
2659.000000	99.707053 
2658.000000	99.691288 
2657.000000	99.677812 
2656.000000	99.671142 
2655.000000	99.673574 
2654.000000	99.682567 
2653.000000	99.691303 
2652.000000	99.693716 
2651.000000	99.689481 
2650.000000	99.683790 
2649.000000	99.682250 
2648.000000	99.686311 
2647.000000	99.693630 
2646.000000	99.702111 
2645.000000	99.712050 
2644.000000	99.723382 
2643.000000	99.732364 
2642.000000	99.733899 
2641.000000	99.727587 
2640.000000	99.718447 
2639.000000	99.710114 
2638.000000	99.700410 
2637.000000	99.686814 
2636.000000	99.673823 
2635.000000	99.669960 
2634.000000	99.677609 
2633.000000	99.690190 
2632.000000	99.700370 
2631.000000	99.706992 
2630.000000	99.712068 
2629.000000	99.714936 
2628.000000	99.712794 
2627.000000	99.704739 
2626.000000	99.691915 
2625.000000	99.675269 
2624.000000	99.656771 
2623.000000	99.642189 
2622.000000	99.638660 
2621.000000	99.648094 
2620.000000	99.665167 
2619.000000	99.683085 
2618.000000	99.699717 
2617.000000	99.716450 
2616.000000	99.732109 
2615.000000	99.740850 
2614.000000	99.737922 
2613.000000	99.726862 
2612.000000	99.718411 
2611.000000	99.720525 
2610.000000	99.730569 
2609.000000	99.739194 
2608.000000	99.740718 
2607.000000	99.736896 
2606.000000	99.731360 
2605.000000	99.724992 
2604.000000	99.718312 
2603.000000	99.714047 
2602.000000	99.713646 
2601.000000	99.713543 
2600.000000	99.708512 
2599.000000	99.697792 
2598.000000	99.685218 
2597.000000	99.674661 
2596.000000	99.668402 
2595.000000	99.668789 
2594.000000	99.677421 
2593.000000	99.691825 
2592.000000	99.705369 
2591.000000	99.711505 
2590.000000	99.707624 
2589.000000	99.696474 
2588.000000	99.686088 
2587.000000	99.686255 
2586.000000	99.700319 
2585.000000	99.719668 
2584.000000	99.729830 
2583.000000	99.723705 
2582.000000	99.707280 
2581.000000	99.692702 
2580.000000	99.688539 
2579.000000	99.696219 
2578.000000	99.711101 
2577.000000	99.724659 
2576.000000	99.729134 
2575.000000	99.723455 
2574.000000	99.713592 
2573.000000	99.705585 
2572.000000	99.699883 
2571.000000	99.693799 
2570.000000	99.687234 
2569.000000	99.683669 
2568.000000	99.686548 
2567.000000	99.695958 
2566.000000	99.707455 
2565.000000	99.713608 
2564.000000	99.709994 
2563.000000	99.701908 
2562.000000	99.701704 
2561.000000	99.715279 
2560.000000	99.732992 
2559.000000	99.738615 
2558.000000	99.726847 
2557.000000	99.707553 
2556.000000	99.692762 
2555.000000	99.684931 
2554.000000	99.680021 
2553.000000	99.676712 
2552.000000	99.677434 
2551.000000	99.682577 
2550.000000	99.688974 
2549.000000	99.694344 
2548.000000	99.699218 
2547.000000	99.703484 
2546.000000	99.704762 
2545.000000	99.702736 
2544.000000	99.702414 
2543.000000	99.709126 
2542.000000	99.720443 
2541.000000	99.726562 
2540.000000	99.720688 
2539.000000	99.707568 
2538.000000	99.699571 
2537.000000	99.704157 
2536.000000	99.716471 
2535.000000	99.725131 
2534.000000	99.724834 
2533.000000	99.722063 
2532.000000	99.727508 
2531.000000	99.743357 
2530.000000	99.759797 
2529.000000	99.764968 
2528.000000	99.756962 
2527.000000	99.744069 
2526.000000	99.734337 
2525.000000	99.728255 
2524.000000	99.722486 
2523.000000	99.717270 
2522.000000	99.716837 
2521.000000	99.723428 
2520.000000	99.733654 
2519.000000	99.741065 
2518.000000	99.740930 
2517.000000	99.733144 
2516.000000	99.722614 
2515.000000	99.716860 
2514.000000	99.720749 
2513.000000	99.731801 
2512.000000	99.741147 
2511.000000	99.740365 
2510.000000	99.728566 
2509.000000	99.714092 
2508.000000	99.709184 
2507.000000	99.719947 
2506.000000	99.738419 
2505.000000	99.745980 
2504.000000	99.729690 
2503.000000	99.697338 
2502.000000	99.673352 
2501.000000	99.676901 
2500.000000	99.704589 
2499.000000	99.735660 
2498.000000	99.752245 
2497.000000	99.752387 
2496.000000	99.745745 
2495.000000	99.741282 
2494.000000	99.740123 
2493.000000	99.737211 
2492.000000	99.727734 
2491.000000	99.713038 
2490.000000	99.701112 
2489.000000	99.699548 
2488.000000	99.707015 
2487.000000	99.713991 
2486.000000	99.714030 
2485.000000	99.712156 
2484.000000	99.718342 
2483.000000	99.733545 
2482.000000	99.746901 
2481.000000	99.748265 
2480.000000	99.739604 
2479.000000	99.731239 
2478.000000	99.730088 
2477.000000	99.735277 
2476.000000	99.742689 
2475.000000	99.748665 
2474.000000	99.749949 
2473.000000	99.745498 
2472.000000	99.739377 
2471.000000	99.737199 
2470.000000	99.738126 
2469.000000	99.735013 
2468.000000	99.724822 
2467.000000	99.713962 
2466.000000	99.709271 
2465.000000	99.707891 
2464.000000	99.701884 
2463.000000	99.690421 
2462.000000	99.680750 
2461.000000	99.677330 
2460.000000	99.676412 
2459.000000	99.673151 
2458.000000	99.668935 
2457.000000	99.668845 
2456.000000	99.675735 
2455.000000	99.689725 
2454.000000	99.709864 
2453.000000	99.731739 
2452.000000	99.745331 
2451.000000	99.740789 
2450.000000	99.718247 
2449.000000	99.689920 
2448.000000	99.670947 
2447.000000	99.668204 
2446.000000	99.677122 
2445.000000	99.687050 
2444.000000	99.689341 
2443.000000	99.682973 
2442.000000	99.675504 
2441.000000	99.678543 
2440.000000	99.698856 
2439.000000	99.730569 
2438.000000	99.756596 
2437.000000	99.761492 
2436.000000	99.745229 
2435.000000	99.722854 
2434.000000	99.708995 
2433.000000	99.704531 
2432.000000	99.700326 
2431.000000	99.691492 
2430.000000	99.683314 
2429.000000	99.683137 
2428.000000	99.691110 
2427.000000	99.701250 
2426.000000	99.708656 
2425.000000	99.712680 
2424.000000	99.714512 
2423.000000	99.714535 
2422.000000	99.712255 
2421.000000	99.707449 
2420.000000	99.701399 
2419.000000	99.697537 
2418.000000	99.699657 
2417.000000	99.707622 
2416.000000	99.715222 
2415.000000	99.714839 
2414.000000	99.706041 
2413.000000	99.698849 
2412.000000	99.706129 
2411.000000	99.730993 
2410.000000	99.761955 
2409.000000	99.782275 
2408.000000	99.784994 
2407.000000	99.777628 
2406.000000	99.771472 
2405.000000	99.768476 
2404.000000	99.761211 
2403.000000	99.744708 
2402.000000	99.724734 
2401.000000	99.712844 
2400.000000	99.714663 
2399.000000	99.724349 
2398.000000	99.730220 
2397.000000	99.725492 
2396.000000	99.714255 
2395.000000	99.707308 
2394.000000	99.711706 
2393.000000	99.724188 
2392.000000	99.734786 
2391.000000	99.735822 
2390.000000	99.726405 
2389.000000	99.709514 
2388.000000	99.687307 
2387.000000	99.660137 
2386.000000	99.629264 
2385.000000	99.600302 
2384.000000	99.584183 
2383.000000	99.592697 
2382.000000	99.629448 
2381.000000	99.684028 
2380.000000	99.737591 
2379.000000	99.776609 
2378.000000	99.800825 
2377.000000	99.817194 
2376.000000	99.828744 
2375.000000	99.831722 
2374.000000	99.821750 
2373.000000	99.798980 
2372.000000	99.767512 
2371.000000	99.733283 
2370.000000	99.703010 
2369.000000	99.682026 
2368.000000	99.672166 
2367.000000	99.673472 
2366.000000	99.686433 
2365.000000	99.707560 
2364.000000	99.725020 
2363.000000	99.728187 
2362.000000	99.720053 
2361.000000	99.714702 
2360.000000	99.718595 
2359.000000	99.722094 
2358.000000	99.715722 
2357.000000	99.703188 
2356.000000	99.695212 
2355.000000	99.700821 
2354.000000	99.722698 
2353.000000	99.747634 
2352.000000	99.749879 
2351.000000	99.719416 
2350.000000	99.677177 
2349.000000	99.653649 
2348.000000	99.660211 
2347.000000	99.677606 
2346.000000	99.675517 
2345.000000	99.650046 
2344.000000	99.623750 
2343.000000	99.615021 
2342.000000	99.629499 
2341.000000	99.665052 
2340.000000	99.707096 
2339.000000	99.732038 
2338.000000	99.726016 
2337.000000	99.695278 
2336.000000	99.657564 
2335.000000	99.629137 
2334.000000	99.618676 
2333.000000	99.622683 
2332.000000	99.625574 
2331.000000	99.613925 
2330.000000	99.590182 
2329.000000	99.566853 
2328.000000	99.552608 
2327.000000	99.546933 
2326.000000	99.546165 
2325.000000	99.546955 
2324.000000	99.547493 
2323.000000	99.548924 
2322.000000	99.553317 
2321.000000	99.560350 
2320.000000	99.566562 
2319.000000	99.570113 
2318.000000	99.572626 
2317.000000	99.576712 
2316.000000	99.581851 
2315.000000	99.583725 
2314.000000	99.577104 
2313.000000	99.559904 
2312.000000	99.536013 
2311.000000	99.515542 
2310.000000	99.509904 
2309.000000	99.522460 
2308.000000	99.543971 
2307.000000	99.558515 
2306.000000	99.555224 
2305.000000	99.534753 
2304.000000	99.506789 
2303.000000	99.482688 
2302.000000	99.469605 
2301.000000	99.468292 
2300.000000	99.474609 
2299.000000	99.483541 
2298.000000	99.493629 
2297.000000	99.507840 
2296.000000	99.528996 
2295.000000	99.554501 
2294.000000	99.577090 
2293.000000	99.591828 
2292.000000	99.600822 
2291.000000	99.609991 
2290.000000	99.622187 
2289.000000	99.635265 
2288.000000	99.645546 
2287.000000	99.650627 
2286.000000	99.649419 
2285.000000	99.642824 
2284.000000	99.634858 
2283.000000	99.629850 
2282.000000	99.627787 
2281.000000	99.625150 
2280.000000	99.620618 
2279.000000	99.615882 
2278.000000	99.610701 
2277.000000	99.603332 
2276.000000	99.598135 
2275.000000	99.604907 
2274.000000	99.624357 
2273.000000	99.640529 
2272.000000	99.637746 
2271.000000	99.622597 
2270.000000	99.618393 
2269.000000	99.637013 
2268.000000	99.665859 
2267.000000	99.685813 
2266.000000	99.692759 
2265.000000	99.695800 
2264.000000	99.701448 
2263.000000	99.707465 
2262.000000	99.709445 
2261.000000	99.706590 
2260.000000	99.701068 
2259.000000	99.695322 
2258.000000	99.689947 
2257.000000	99.682824 
2256.000000	99.672206 
2255.000000	99.661792 
2254.000000	99.659416 
2253.000000	99.667801 
2252.000000	99.679571 
2251.000000	99.684690 
2250.000000	99.681083 
2249.000000	99.674478 
2248.000000	99.670712 
2247.000000	99.672252 
2246.000000	99.680669 
2245.000000	99.696881 
2244.000000	99.716160 
2243.000000	99.727398 
2242.000000	99.722279 
2241.000000	99.705289 
2240.000000	99.690052 
2239.000000	99.683072 
2238.000000	99.675176 
2237.000000	99.654786 
2236.000000	99.627910 
2235.000000	99.616517 
2234.000000	99.633986 
2233.000000	99.668710 
2232.000000	99.696448 
2231.000000	99.702514 
2230.000000	99.686195 
2229.000000	99.652659 
2228.000000	99.613070 
2227.000000	99.587756 
2226.000000	99.593233 
2225.000000	99.622151 
2224.000000	99.646568 
2223.000000	99.645666 
2222.000000	99.623177 
2221.000000	99.597310 
2220.000000	99.584735 
2219.000000	99.596581 
2218.000000	99.635421 
2217.000000	99.686253 
2216.000000	99.720646 
2215.000000	99.721838 
2214.000000	99.701526 
2213.000000	99.683937 
2212.000000	99.677645 
2211.000000	99.671838 
2210.000000	99.657944 
2209.000000	99.645090 
2208.000000	99.650478 
2207.000000	99.677302 
2206.000000	99.705455 
2205.000000	99.708187 
2204.000000	99.681658 
2203.000000	99.652821 
2202.000000	99.649045 
2201.000000	99.662945 
2200.000000	99.661024 
2199.000000	99.629245 
2198.000000	99.593592 
2197.000000	99.586089 
2196.000000	99.604049 
2195.000000	99.617396 
2194.000000	99.608362 
2193.000000	99.589104 
2192.000000	99.583493 
2191.000000	99.604147 
2190.000000	99.646000 
2189.000000	99.690943 
2188.000000	99.718370 
2187.000000	99.719628 
2186.000000	99.703619 
2185.000000	99.685986 
2184.000000	99.676526 
2183.000000	99.679663 
2182.000000	99.697734 
2181.000000	99.724793 
2180.000000	99.746054 
2179.000000	99.755152 
2178.000000	99.764644 
2177.000000	99.786869 
2176.000000	99.810551 
2175.000000	99.812971 
2174.000000	99.794645 
2173.000000	99.785203 
2172.000000	99.809953 
2171.000000	99.861601 
2170.000000	99.908356 
2169.000000	99.921245 
2168.000000	99.891605 
2167.000000	99.830537 
2166.000000	99.758647 
2165.000000	99.695569 
2164.000000	99.655532 
2163.000000	99.649872 
2162.000000	99.685553 
2161.000000	99.752514 
2160.000000	99.818747 
2159.000000	99.854256 
2158.000000	99.859501 
2157.000000	99.855717 
2156.000000	99.852591 
2155.000000	99.841867 
2154.000000	99.816714 
2153.000000	99.782267 
2152.000000	99.747937 
2151.000000	99.719417 
2150.000000	99.698603 
2149.000000	99.682597 
2148.000000	99.662900 
2147.000000	99.635218 
2146.000000	99.611584 
2145.000000	99.613421 
2144.000000	99.648656 
2143.000000	99.702695 
2142.000000	99.754851 
2141.000000	99.796292 
2140.000000	99.826710 
2139.000000	99.839006 
2138.000000	99.818274 
2137.000000	99.761371 
2136.000000	99.692831 
2135.000000	99.652238 
2134.000000	99.661485 
2133.000000	99.706798 
2132.000000	99.755817 
2131.000000	99.788611 
2130.000000	99.806787 
2129.000000	99.817195 
2128.000000	99.818243 
2127.000000	99.806066 
2126.000000	99.786034 
2125.000000	99.769845 
2124.000000	99.763619 
2123.000000	99.765024 
2122.000000	99.769922 
2121.000000	99.774493 
2120.000000	99.771318 
2119.000000	99.751762 
2118.000000	99.716540 
2117.000000	99.679887 
2116.000000	99.658921 
2115.000000	99.660540 
2114.000000	99.681156 
2113.000000	99.715955 
2112.000000	99.762474 
2111.000000	99.813264 
2110.000000	99.850089 
2109.000000	99.853975 
2108.000000	99.825042 
2107.000000	99.787222 
2106.000000	99.766348 
2105.000000	99.763856 
2104.000000	99.758065 
2103.000000	99.732714 
2102.000000	99.697147 
2101.000000	99.673986 
2100.000000	99.673055 
2099.000000	99.684878 
2098.000000	99.696873 
2097.000000	99.706809 
2096.000000	99.717771 
2095.000000	99.725823 
2094.000000	99.718920 
2093.000000	99.690354 
2092.000000	99.652623 
2091.000000	99.633992 
2090.000000	99.655037 
2089.000000	99.705550 
2088.000000	99.749874 
2087.000000	99.760256 
2086.000000	99.741558 
2085.000000	99.720418 
2084.000000	99.715354 
2083.000000	99.723414 
2082.000000	99.731649 
2081.000000	99.731348 
2080.000000	99.720953 
2079.000000	99.704565 
2078.000000	99.691851 
2077.000000	99.692628 
2076.000000	99.705217 
2075.000000	99.713581 
2074.000000	99.701592 
2073.000000	99.670383 
2072.000000	99.638506 
2071.000000	99.624180 
2070.000000	99.630712 
2069.000000	99.650973 
2068.000000	99.682508 
2067.000000	99.730610 
2066.000000	99.791903 
2065.000000	99.841358 
2064.000000	99.848888 
2063.000000	99.811874 
2062.000000	99.761663 
2061.000000	99.733427 
2060.000000	99.735140 
2059.000000	99.749675 
2058.000000	99.759745 
2057.000000	99.761176 
2056.000000	99.754726 
2055.000000	99.736019 
2054.000000	99.699298 
2053.000000	99.649769 
2052.000000	99.609072 
2051.000000	99.603969 
2050.000000	99.641876 
2049.000000	99.694851 
2048.000000	99.721490 
2047.000000	99.713346 
2046.000000	99.704212 
2045.000000	99.722735 
2044.000000	99.751190 
2043.000000	99.748971 
2042.000000	99.709271 
2041.000000	99.671369 
2040.000000	99.674214 
2039.000000	99.715934 
2038.000000	99.764418 
2037.000000	99.790656 
2036.000000	99.785074 
2035.000000	99.755599 
2034.000000	99.723108 
2033.000000	99.714086 
2032.000000	99.744310 
2031.000000	99.805530 
2030.000000	99.868654 
2029.000000	99.901645 
2028.000000	99.891917 
2027.000000	99.855506 
2026.000000	99.820229 
2025.000000	99.797554 
2024.000000	99.776216 
2023.000000	99.745566 
2022.000000	99.713147 
2021.000000	99.688334 
2020.000000	99.661486 
2019.000000	99.620230 
2018.000000	99.581911 
2017.000000	99.584453 
2016.000000	99.637467 
2015.000000	99.704831 
2014.000000	99.744691 
2013.000000	99.748234 
2012.000000	99.731902 
2011.000000	99.708637 
2010.000000	99.683614 
2009.000000	99.669645 
2008.000000	99.683409 
2007.000000	99.720255 
2006.000000	99.746760 
2005.000000	99.730737 
2004.000000	99.676693 
2003.000000	99.623608 
2002.000000	99.607476 
2001.000000	99.627195 
2000.000000	99.647932 
1999.000000	99.638881 
1998.000000	99.603840 
1997.000000	99.574842 
1996.000000	99.579642 
1995.000000	99.616314 
1994.000000	99.656114 
1993.000000	99.669894 
1992.000000	99.657226 
1991.000000	99.647576 
1990.000000	99.665079 
1989.000000	99.697306 
1988.000000	99.710109 
1987.000000	99.691566 
1986.000000	99.666647 
1985.000000	99.662939 
1984.000000	99.676880 
1983.000000	99.685856 
1982.000000	99.681772 
1981.000000	99.675805 
1980.000000	99.676574 
1979.000000	99.681500 
1978.000000	99.688723 
1977.000000	99.700878 
1976.000000	99.713762 
1975.000000	99.717070 
1974.000000	99.711423 
1973.000000	99.711841 
1972.000000	99.728700 
1971.000000	99.753865 
1970.000000	99.770184 
1969.000000	99.769257 
1968.000000	99.758162 
1967.000000	99.753731 
1966.000000	99.770581 
1965.000000	99.807750 
1964.000000	99.844607 
1963.000000	99.854520 
1962.000000	99.826128 
1961.000000	99.771717 
1960.000000	99.714493 
1959.000000	99.670913 
1958.000000	99.647286 
1957.000000	99.646271 
1956.000000	99.669278 
1955.000000	99.712780 
1954.000000	99.764153 
1953.000000	99.803152 
1952.000000	99.811575 
1951.000000	99.787056 
1950.000000	99.748889 
1949.000000	99.723556 
1948.000000	99.720176 
1947.000000	99.724113 
1946.000000	99.717542 
1945.000000	99.702901 
1944.000000	99.701342 
1943.000000	99.727497 
1942.000000	99.769098 
1941.000000	99.798109 
1940.000000	99.801068 
1939.000000	99.788415 
1938.000000	99.776006 
1937.000000	99.768333 
1936.000000	99.763007 
1935.000000	99.763860 
1934.000000	99.777631 
1933.000000	99.798444 
1932.000000	99.807853 
1931.000000	99.796875 
1930.000000	99.779485 
1929.000000	99.774051 
1928.000000	99.780533 
1927.000000	99.786532 
1926.000000	99.787670 
1925.000000	99.788086 
1924.000000	99.783703 
1923.000000	99.763635 
1922.000000	99.731884 
1921.000000	99.709799 
1920.000000	99.711779 
1919.000000	99.730107 
1918.000000	99.746112 
1917.000000	99.749955 
1916.000000	99.745129 
1915.000000	99.739181 
1914.000000	99.735905 
1913.000000	99.732929 
1912.000000	99.722556 
1911.000000	99.698831 
1910.000000	99.667951 
1909.000000	99.646461 
1908.000000	99.646706 
1907.000000	99.667030 
1906.000000	99.695629 
1905.000000	99.718775 
1904.000000	99.726716 
1903.000000	99.721091 
1902.000000	99.715559 
1901.000000	99.721382 
1900.000000	99.734985 
1899.000000	99.744375 
1898.000000	99.744276 
1897.000000	99.738877 
1896.000000	99.730952 
1895.000000	99.719035 
1894.000000	99.707058 
1893.000000	99.705118 
1892.000000	99.717512 
1891.000000	99.736841 
1890.000000	99.752211 
1889.000000	99.760644 
1888.000000	99.768186 
1887.000000	99.781756 
1886.000000	99.800595 
1885.000000	99.813678 
1884.000000	99.807837 
1883.000000	99.782347 
1882.000000	99.752197 
1881.000000	99.732390 
1880.000000	99.724463 
1879.000000	99.722292 
1878.000000	99.724433 
1877.000000	99.733626 
1876.000000	99.746777 
1875.000000	99.755255 
1874.000000	99.756310 
1873.000000	99.753580 
1872.000000	99.745383 
1871.000000	99.723847 
1870.000000	99.691747 
1869.000000	99.670542 
1868.000000	99.675734 
1867.000000	99.696303 
1866.000000	99.712155 
1865.000000	99.715948 
1864.000000	99.713779 
1863.000000	99.714716 
1862.000000	99.722688 
1861.000000	99.735137 
1860.000000	99.745561 
1859.000000	99.749595 
1858.000000	99.749446 
1857.000000	99.749220 
1856.000000	99.747783 
1855.000000	99.741165 
1854.000000	99.730876 
1853.000000	99.723381 
1852.000000	99.722550 
1851.000000	99.726214 
1850.000000	99.728427 
1849.000000	99.725062 
1848.000000	99.716832 
1847.000000	99.708817 
1846.000000	99.707510 
1845.000000	99.716950 
1844.000000	99.733577 
1843.000000	99.748110 
1842.000000	99.754501 
1841.000000	99.750836 
1840.000000	99.737063 
1839.000000	99.716755 
1838.000000	99.699656 
1837.000000	99.696944 
1836.000000	99.709998 
1835.000000	99.728152 
1834.000000	99.738443 
1833.000000	99.737128 
1832.000000	99.732913 
1831.000000	99.736738 
1830.000000	99.747582 
1829.000000	99.754381 
1828.000000	99.750695 
1827.000000	99.739187 
1826.000000	99.726537 
1825.000000	99.720613 
1824.000000	99.725140 
1823.000000	99.735409 
1822.000000	99.744700 
1821.000000	99.750725 
1820.000000	99.754720 
1819.000000	99.756286 
1818.000000	99.753634 
1817.000000	99.747228 
1816.000000	99.736744 
1815.000000	99.721108 
1814.000000	99.704027 
1813.000000	99.695968 
1812.000000	99.705084 
1811.000000	99.724800 
1810.000000	99.741549 
1809.000000	99.749395 
1808.000000	99.748829 
1807.000000	99.742733 
1806.000000	99.737099 
1805.000000	99.736781 
1804.000000	99.737896 
1803.000000	99.731736 
1802.000000	99.716669 
1801.000000	99.700937 
1800.000000	99.689654 
1799.000000	99.678304 
1798.000000	99.667294 
1797.000000	99.666425 
1796.000000	99.680458 
1795.000000	99.702246 
1794.000000	99.720057 
1793.000000	99.729558 
1792.000000	99.734725 
1791.000000	99.738196 
1790.000000	99.739789 
1789.000000	99.738714 
1788.000000	99.734264 
1787.000000	99.727672 
1786.000000	99.722623 
1785.000000	99.720479 
1784.000000	99.716450 
1783.000000	99.708880 
1782.000000	99.704485 
1781.000000	99.710475 
1780.000000	99.725427 
1779.000000	99.738280 
1778.000000	99.740559 
1777.000000	99.732550 
1776.000000	99.720967 
1775.000000	99.714623 
1774.000000	99.716139 
1773.000000	99.720006 
1772.000000	99.720116 
1771.000000	99.715360 
1770.000000	99.707816 
1769.000000	99.701143 
1768.000000	99.698759 
1767.000000	99.700165 
1766.000000	99.702192 
1765.000000	99.705274 
1764.000000	99.713428 
1763.000000	99.726524 
1762.000000	99.734927 
1761.000000	99.729500 
1760.000000	99.713044 
1759.000000	99.693491 
1758.000000	99.674759 
1757.000000	99.654762 
1756.000000	99.634069 
1755.000000	99.617877 
1754.000000	99.610085 
1753.000000	99.611665 
1752.000000	99.620982 
1751.000000	99.628736 
1750.000000	99.620387 
1749.000000	99.596283 
1748.000000	99.575635 
1747.000000	99.573545 
1746.000000	99.583327 
1745.000000	99.591000 
1744.000000	99.595298 
1743.000000	99.600736 
1742.000000	99.603921 
1741.000000	99.599518 
1740.000000	99.592189 
1739.000000	99.592790 
1738.000000	99.603134 
1737.000000	99.616957 
1736.000000	99.625659 
1735.000000	99.621494 
1734.000000	99.602428 
1733.000000	99.577822 
1732.000000	99.563857 
1731.000000	99.570275 
1730.000000	99.594339 
1729.000000	99.620175 
1728.000000	99.635772 
1727.000000	99.642409 
1726.000000	99.645085 
1725.000000	99.643871 
1724.000000	99.638709 
1723.000000	99.632854 
1722.000000	99.632846 
1721.000000	99.642968 
1720.000000	99.661358 
1719.000000	99.679026 
1718.000000	99.686215 
1717.000000	99.685682 
1716.000000	99.682918 
1715.000000	99.677125 
1714.000000	99.672219 
1713.000000	99.671614 
1712.000000	99.671327 
1711.000000	99.668424 
1710.000000	99.665373 
1709.000000	99.664088 
1708.000000	99.664641 
1707.000000	99.669659 
1706.000000	99.684756 
1705.000000	99.708181 
1704.000000	99.718695 
1703.000000	99.698870 
1702.000000	99.648559 
1701.000000	99.601149 
1700.000000	99.598868 
1699.000000	99.622924 
1698.000000	99.641474 
1697.000000	99.656978 
1696.000000	99.670240 
1695.000000	99.674835 
1694.000000	99.674156 
1693.000000	99.675638 
1692.000000	99.678627 
1691.000000	99.674810 
1690.000000	99.663342 
1689.000000	99.653130 
1688.000000	99.650500 
1687.000000	99.652585 
1686.000000	99.651899 
1685.000000	99.650004 
1684.000000	99.650330 
1683.000000	99.656809 
1682.000000	99.670266 
1681.000000	99.680807 
1680.000000	99.684803 
1679.000000	99.683100 
1678.000000	99.678370 
1677.000000	99.669925 
1676.000000	99.659826 
1675.000000	99.655027 
1674.000000	99.653991 
1673.000000	99.647447 
1672.000000	99.633623 
1671.000000	99.618577 
1670.000000	99.611607 
1669.000000	99.615496 
1668.000000	99.627381 
1667.000000	99.643802 
1666.000000	99.657148 
1665.000000	99.659898 
1664.000000	99.650248 
1663.000000	99.637444 
1662.000000	99.635576 
1661.000000	99.645061 
1660.000000	99.657818 
1659.000000	99.668562 
1658.000000	99.675157 
1657.000000	99.672801 
1656.000000	99.663692 
1655.000000	99.654855 
1654.000000	99.658821 
1653.000000	99.670108 
1652.000000	99.674913 
1651.000000	99.671004 
1650.000000	99.657368 
1649.000000	99.641485 
1648.000000	99.622282 
1647.000000	99.602627 
1646.000000	99.588597 
1645.000000	99.586634 
1644.000000	99.591272 
1643.000000	99.597654 
1642.000000	99.604345 
1641.000000	99.607358 
1640.000000	99.601038 
1639.000000	99.585749 
1638.000000	99.568996 
1637.000000	99.559075 
1636.000000	99.559681 
1635.000000	99.574259 
1634.000000	99.600450 
1633.000000	99.626486 
1632.000000	99.642515 
1631.000000	99.646001 
1630.000000	99.641978 
1629.000000	99.637905 
1628.000000	99.638986 
1627.000000	99.647796 
1626.000000	99.661720 
1625.000000	99.671219 
1624.000000	99.667548 
1623.000000	99.654416 
1622.000000	99.644053 
1621.000000	99.637877 
1620.000000	99.631233 
1619.000000	99.626131 
1618.000000	99.630478 
1617.000000	99.645061 
1616.000000	99.659698 
1615.000000	99.671566 
1614.000000	99.681692 
1613.000000	99.683872 
1612.000000	99.671697 
1611.000000	99.652390 
1610.000000	99.642147 
1609.000000	99.645020 
1608.000000	99.651827 
1607.000000	99.658198 
1606.000000	99.665047 
1605.000000	99.667310 
1604.000000	99.660040 
1603.000000	99.649044 
1602.000000	99.645321 
1601.000000	99.651411 
1600.000000	99.660683 
1599.000000	99.666750 
1598.000000	99.665950 
1597.000000	99.656404 
1596.000000	99.640943 
1595.000000	99.629653 
1594.000000	99.632699 
1593.000000	99.648963 
1592.000000	99.668355 
1591.000000	99.683184 
1590.000000	99.690724 
1589.000000	99.688394 
1588.000000	99.676094 
1587.000000	99.661410 
1586.000000	99.653940 
1585.000000	99.653787 
1584.000000	99.655920 
1583.000000	99.661985 
1582.000000	99.674004 
1581.000000	99.684048 
1580.000000	99.683204 
1579.000000	99.675034 
1578.000000	99.669467 
1577.000000	99.669760 
1576.000000	99.671732 
1575.000000	99.678616 
1574.000000	99.692715 
1573.000000	99.705007 
1572.000000	99.707605 
1571.000000	99.700032 
1570.000000	99.691587 
1569.000000	99.687805 
1568.000000	99.688043 
1567.000000	99.690147 
1566.000000	99.690021 
1565.000000	99.682393 
1564.000000	99.674128 
1563.000000	99.676502 
1562.000000	99.694888 
1561.000000	99.713592 
1560.000000	99.721335 
1559.000000	99.713643 
1558.000000	99.700935 
1557.000000	99.701405 
1556.000000	99.701184 
1555.000000	99.697303 
1554.000000	99.686001 
1553.000000	99.673295 
1552.000000	99.664256 
1551.000000	99.660271 
1550.000000	99.656831 
1549.000000	99.653785 
1548.000000	99.654181 
1547.000000	99.659909 
1546.000000	99.668137 
1545.000000	99.674643 
1544.000000	99.677255 
1543.000000	99.673888 
1542.000000	99.662998 
1541.000000	99.646194 
1540.000000	99.620336 
1539.000000	99.602393 
1538.000000	99.611502 
1537.000000	99.632724 
1536.000000	99.650690 
1535.000000	99.659770 
1534.000000	99.661616 
1533.000000	99.662763 
1532.000000	99.666244 
1531.000000	99.666322 
1530.000000	99.662326 
1529.000000	99.661960 
1528.000000	99.670151 
1527.000000	99.682483 
1526.000000	99.690052 
1525.000000	99.691520 
1524.000000	99.693561 
1523.000000	99.699690 
1522.000000	99.704137 
1521.000000	99.698319 
1520.000000	99.683759 
1519.000000	99.669370 
1518.000000	99.661908 
1517.000000	99.665476 
1516.000000	99.678309 
1515.000000	99.692479 
1514.000000	99.699885 
1513.000000	99.698863 
1512.000000	99.693228 
1511.000000	99.684245 
1510.000000	99.672764 
1509.000000	99.662952 
1508.000000	99.666456 
1507.000000	99.675078 
1506.000000	99.674621 
1505.000000	99.675924 
1504.000000	99.678549 
1503.000000	99.677571 
1502.000000	99.672803 
1501.000000	99.669394 
1500.000000	99.675412 
1499.000000	99.692539 
1498.000000	99.707964 
1497.000000	99.712389 
1496.000000	99.709860 
1495.000000	99.704321 
1494.000000	99.694654 
1493.000000	99.680583 
1492.000000	99.664157 
1491.000000	99.649358 
1490.000000	99.641412 
1489.000000	99.645202 
1488.000000	99.656932 
1487.000000	99.666958 
1486.000000	99.676264 
1485.000000	99.686136 
1484.000000	99.691959 
1483.000000	99.693081 
1482.000000	99.694352 
1481.000000	99.700205 
1480.000000	99.704785 
1479.000000	99.696975 
1478.000000	99.674564 
1477.000000	99.650551 
1476.000000	99.639607 
1475.000000	99.642757 
1474.000000	99.651766 
1473.000000	99.657174 
1472.000000	99.653579 
1471.000000	99.642553 
1470.000000	99.631934 
1469.000000	99.630107 
1468.000000	99.637793 
1467.000000	99.645743 
1466.000000	99.645171 
1465.000000	99.637530 
1464.000000	99.632646 
1463.000000	99.633694 
1462.000000	99.635415 
1461.000000	99.635974 
1460.000000	99.638547 
1459.000000	99.644555 
1458.000000	99.643572 
1457.000000	99.627592 
1456.000000	99.613960 
1455.000000	99.616028 
1454.000000	99.625798 
1453.000000	99.638027 
1452.000000	99.648326 
1451.000000	99.651974 
1450.000000	99.646715 
1449.000000	99.639184 
1448.000000	99.638151 
1447.000000	99.644178 
1446.000000	99.650416 
1445.000000	99.651580 
1444.000000	99.649162 
1443.000000	99.644853 
1442.000000	99.638795 
1441.000000	99.633318 
1440.000000	99.633686 
1439.000000	99.640095 
1438.000000	99.643040 
1437.000000	99.636652 
1436.000000	99.629855 
1435.000000	99.630373 
1434.000000	99.634309 
1433.000000	99.638585 
1432.000000	99.642005 
1431.000000	99.643372 
1430.000000	99.641113 
1429.000000	99.638037 
1428.000000	99.639322 
1427.000000	99.645082 
1426.000000	99.650442 
1425.000000	99.650673 
1424.000000	99.651163 
1423.000000	99.658294 
1422.000000	99.667122 
1421.000000	99.668867 
1420.000000	99.664786 
1419.000000	99.661795 
1418.000000	99.656359 
1417.000000	99.645763 
1416.000000	99.637930 
1415.000000	99.639041 
1414.000000	99.645362 
1413.000000	99.650821 
1412.000000	99.655984 
1411.000000	99.664166 
1410.000000	99.672025 
1409.000000	99.675724 
1408.000000	99.676802 
1407.000000	99.678378 
1406.000000	99.680986 
1405.000000	99.682679 
1404.000000	99.684384 
1403.000000	99.685470 
1402.000000	99.681224 
1401.000000	99.670412 
1400.000000	99.658648 
1399.000000	99.653087 
1398.000000	99.654570 
1397.000000	99.662384 
1396.000000	99.679345 
1395.000000	99.704254 
1394.000000	99.723795 
1393.000000	99.726479 
1392.000000	99.719445 
1391.000000	99.716019 
1390.000000	99.719354 
1389.000000	99.722540 
1388.000000	99.718940 
1387.000000	99.710784 
1386.000000	99.705873 
1385.000000	99.707523 
1384.000000	99.712962 
1383.000000	99.717461 
1382.000000	99.718416 
1381.000000	99.717376 
1380.000000	99.715872 
1379.000000	99.713001 
1378.000000	99.707347 
1377.000000	99.700193 
1376.000000	99.696048 
1375.000000	99.699751 
1374.000000	99.710066 
1373.000000	99.718836 
1372.000000	99.719731 
1371.000000	99.714930 
1370.000000	99.711212 
1369.000000	99.710805 
1368.000000	99.712226 
1367.000000	99.714194 
1366.000000	99.716558 
1365.000000	99.719758 
1364.000000	99.723662 
1363.000000	99.727011 
1362.000000	99.728034 
1361.000000	99.725736 
1360.000000	99.721858 
1359.000000	99.721154 
1358.000000	99.726797 
1357.000000	99.735740 
1356.000000	99.741620 
1355.000000	99.742081 
1354.000000	99.740666 
1353.000000	99.741744 
1352.000000	99.743932 
1351.000000	99.743222 
1350.000000	99.740362 
1349.000000	99.738067 
1348.000000	99.737661 
1347.000000	99.738742 
1346.000000	99.740825 
1345.000000	99.743017 
1344.000000	99.743513 
1343.000000	99.740621 
1342.000000	99.734225 
1341.000000	99.725772 
1340.000000	99.717961 
1339.000000	99.713659 
1338.000000	99.713098 
1337.000000	99.714246 
1336.000000	99.716666 
1335.000000	99.722148 
1334.000000	99.731175 
1333.000000	99.740512 
1332.000000	99.745478 
1331.000000	99.744408 
1330.000000	99.738982 
1329.000000	99.731113 
1328.000000	99.722412 
1327.000000	99.716249 
1326.000000	99.715844 
1325.000000	99.719470 
1324.000000	99.723167 
1323.000000	99.725897 
1322.000000	99.728801 
1321.000000	99.731463 
1320.000000	99.733456 
1319.000000	99.738177 
1318.000000	99.749403 
1317.000000	99.763376 
1316.000000	99.769546 
1315.000000	99.761786 
1314.000000	99.745946 
1313.000000	99.734179 
1312.000000	99.732911 
1311.000000	99.739051 
1310.000000	99.746295 
1309.000000	99.751094 
1308.000000	99.752180 
1307.000000	99.749268 
1306.000000	99.744450 
1305.000000	99.741253 
1304.000000	99.741078 
1303.000000	99.740955 
1302.000000	99.737659 
1301.000000	99.733120 
1300.000000	99.733050 
1299.000000	99.740017 
1298.000000	99.750821 
1297.000000	99.760842 
1296.000000	99.767334 
1295.000000	99.767826 
1294.000000	99.759430 
1293.000000	99.743379 
1292.000000	99.727484 
1291.000000	99.719650 
1290.000000	99.719705 
1289.000000	99.721104 
1288.000000	99.720211 
1287.000000	99.720086 
1286.000000	99.724462 
1285.000000	99.731713 
1284.000000	99.736726 
1283.000000	99.736481 
1282.000000	99.732454 
1281.000000	99.728472 
1280.000000	99.727250 
1279.000000	99.728686 
1278.000000	99.730433 
1277.000000	99.730310 
1276.000000	99.728019 
1275.000000	99.724658 
1274.000000	99.720903 
1273.000000	99.716524 
1272.000000	99.711458 
1271.000000	99.706329 
1270.000000	99.701760 
1269.000000	99.697779 
1268.000000	99.694052 
1267.000000	99.690135 
1266.000000	99.685847 
1265.000000	99.682357 
1264.000000	99.681627 
1263.000000	99.683539 
1262.000000	99.685492 
1261.000000	99.686714 
1260.000000	99.691261 
1259.000000	99.703405 
1258.000000	99.719963 
1257.000000	99.731054 
1256.000000	99.729288 
1255.000000	99.716345 
1254.000000	99.700128 
1253.000000	99.687418 
1252.000000	99.680300 
1251.000000	99.677958 
1250.000000	99.679165 
1249.000000	99.682284 
1248.000000	99.684115 
1247.000000	99.680914 
1246.000000	99.672587 
1245.000000	99.666132 
1244.000000	99.671864 
1243.000000	99.693587 
1242.000000	99.723284 
1241.000000	99.747251 
1240.000000	99.756761 
1239.000000	99.752577 
1238.000000	99.741715 
1237.000000	99.731443 
1236.000000	99.724639 
1235.000000	99.718991 
1234.000000	99.711294 
1233.000000	99.702824 
1232.000000	99.698523 
1231.000000	99.700653 
1230.000000	99.706544 
1229.000000	99.713536 
1228.000000	99.721662 
1227.000000	99.729522 
1226.000000	99.732880 
1225.000000	99.731155 
1224.000000	99.730712 
1223.000000	99.736599 
1222.000000	99.744268 
1221.000000	99.744906 
1220.000000	99.736764 
1219.000000	99.726075 
1218.000000	99.718426 
1217.000000	99.714822 
1216.000000	99.715611 
1215.000000	99.722611 
1214.000000	99.735955 
1213.000000	99.752028 
1212.000000	99.765195 
1211.000000	99.770210 
1210.000000	99.765120 
1209.000000	99.754055 
1208.000000	99.744538 
1207.000000	99.739316 
1206.000000	99.734199 
1205.000000	99.727269 
1204.000000	99.725404 
1203.000000	99.735757 
1202.000000	99.753991 
1201.000000	99.767901 
1200.000000	99.771050 
1199.000000	99.766376 
1198.000000	99.757938 
1197.000000	99.746811 
1196.000000	99.735504 
1195.000000	99.729125 
1194.000000	99.729614 
1193.000000	99.733209 
1192.000000	99.735529 
1191.000000	99.735933 
1190.000000	99.736429 
1189.000000	99.739537 
1188.000000	99.746884 
1187.000000	99.756353 
1186.000000	99.761809 
1185.000000	99.760284 
1184.000000	99.758098 
1183.000000	99.764192 
1182.000000	99.777517 
1181.000000	99.786669 
1180.000000	99.782849 
1179.000000	99.768259 
1178.000000	99.750762 
1177.000000	99.735520 
1176.000000	99.724003 
1175.000000	99.716780 
1174.000000	99.714016 
1173.000000	99.714866 
1172.000000	99.717688 
1171.000000	99.719756 
1170.000000	99.717873 
1169.000000	99.711791 
1168.000000	99.705564 
1167.000000	99.702626 
1166.000000	99.701634 
1165.000000	99.700891 
1164.000000	99.703838 
1163.000000	99.714473 
1162.000000	99.729611 
1161.000000	99.741839 
1160.000000	99.748259 
1159.000000	99.750116 
1158.000000	99.746559 
1157.000000	99.737211 
1156.000000	99.729037 
1155.000000	99.730269 
1154.000000	99.736773 
1153.000000	99.734798 
1152.000000	99.719905 
1151.000000	99.703729 
1150.000000	99.698596 
1149.000000	99.704547 
1148.000000	99.715632 
1147.000000	99.729088 
1146.000000	99.741467 
1145.000000	99.743911 
1144.000000	99.730523 
1143.000000	99.707981 
1142.000000	99.689753 
1141.000000	99.682910 
1140.000000	99.685234 
1139.000000	99.691662 
1138.000000	99.698448 
1137.000000	99.704076 
1136.000000	99.710823 
1135.000000	99.722965 
1134.000000	99.739829 
1133.000000	99.753826 
1132.000000	99.759064 
1131.000000	99.758321 
1130.000000	99.757047 
1129.000000	99.753478 
1128.000000	99.740076 
1127.000000	99.713624 
1126.000000	99.680247 
1125.000000	99.651508 
1124.000000	99.637695 
1123.000000	99.641620 
1122.000000	99.655032 
1121.000000	99.663971 
1120.000000	99.662067 
1119.000000	99.657189 
1118.000000	99.661695 
1117.000000	99.677592 
1116.000000	99.694361 
1115.000000	99.699697 
1114.000000	99.689469 
1113.000000	99.668630 
1112.000000	99.646031 
1111.000000	99.629058 
1110.000000	99.620857 
1109.000000	99.621009 
1108.000000	99.627465 
1107.000000	99.635755 
1106.000000	99.638717 
1105.000000	99.631274 
1104.000000	99.615340 
1103.000000	99.597276 
1102.000000	99.580440 
1101.000000	99.564606 
1100.000000	99.550795 
1099.000000	99.540153 
1098.000000	99.531249 
1097.000000	99.522069 
1096.000000	99.516584 
1095.000000	99.521577 
1094.000000	99.535732 
1093.000000	99.548319 
1092.000000	99.550976 
1091.000000	99.545187 
1090.000000	99.536784 
1089.000000	99.529358 
1088.000000	99.525099 
1087.000000	99.525498 
1086.000000	99.528438 
1085.000000	99.530356 
1084.000000	99.532951 
1083.000000	99.540779 
1082.000000	99.550307 
1081.000000	99.549863 
1080.000000	99.534232 
1079.000000	99.511007 
1078.000000	99.487774 
1077.000000	99.462102 
1076.000000	99.432040 
1075.000000	99.408937 
1074.000000	99.409278 
1073.000000	99.436132 
1072.000000	99.475447 
1071.000000	99.508217 
1070.000000	99.521862 
1069.000000	99.513722 
1068.000000	99.489826 
1067.000000	99.460201 
1066.000000	99.432786 
1065.000000	99.413004 
1064.000000	99.407702 
1063.000000	99.420555 
1062.000000	99.439504 
1061.000000	99.438277 
1060.000000	99.400269 
1059.000000	99.338509 
1058.000000	99.285171 
1057.000000	99.262449 
1056.000000	99.267783 
1055.000000	99.282734 
1054.000000	99.289192 
1053.000000	99.279555 
1052.000000	99.258355 
1051.000000	99.235710 
1050.000000	99.217007 
1049.000000	99.199525 
1048.000000	99.178836 
1047.000000	99.153749 
1046.000000	99.124984 
1045.000000	99.095649 
1044.000000	99.074036 
1043.000000	99.068184 
1042.000000	99.074364 
1041.000000	99.077590 
1040.000000	99.066939 
1039.000000	99.044551 
1038.000000	99.018234 
1037.000000	98.994332 
1036.000000	98.980948 
1035.000000	98.985881 
1034.000000	99.002712 
1033.000000	99.008850 
1032.000000	98.988121 
1031.000000	98.949064 
1030.000000	98.911639 
1029.000000	98.883194 
1028.000000	98.858870 
1027.000000	98.837874 
1026.000000	98.823402 
1025.000000	98.809197 
1024.000000	98.782401 
1023.000000	98.742374 
1022.000000	98.704555 
1021.000000	98.682367 
1020.000000	98.674774 
1019.000000	98.673769 
1018.000000	98.674350 
1017.000000	98.674048 
1016.000000	98.671671 
1015.000000	98.670405 
1014.000000	98.674024 
1013.000000	98.676180 
1012.000000	98.662309 
1011.000000	98.628693 
1010.000000	98.592451 
1009.000000	98.573793 
1008.000000	98.571225 
1007.000000	98.560759 
1006.000000	98.517813 
1005.000000	98.436420 
1004.000000	98.333592 
1003.000000	98.244943 
1002.000000	98.211517 
1001.000000	98.253630 
1000.000000	98.347489 
999.000000	 98.434117 
998.000000	 98.464646 
997.000000	 98.439866 
996.000000	 98.399639 
995.000000	 98.376145 
994.000000	 98.367285 
993.000000	 98.355712 
992.000000	 98.339014 
991.000000	 98.329600 
990.000000	 98.332357 
989.000000	 98.336820 
988.000000	 98.331033 
987.000000	 98.311542 
986.000000	 98.278385 
985.000000	 98.231387 
984.000000	 98.175828 
983.000000	 98.122621 
982.000000	 98.077075 
981.000000	 98.034510 
980.000000	 97.992237 
979.000000	 97.957793 
978.000000	 97.937603 
977.000000	 97.923902 
976.000000	 97.902281 
975.000000	 97.868952 
974.000000	 97.832133 
973.000000	 97.798615 
972.000000	 97.768117 
971.000000	 97.741325 
970.000000	 97.725241 
969.000000	 97.726724 
968.000000	 97.743937 
967.000000	 97.766120 
966.000000	 97.780961 
965.000000	 97.783587 
964.000000	 97.780949 
963.000000	 97.786447 
962.000000	 97.807339 
961.000000	 97.837433 
960.000000	 97.863268 
959.000000	 97.875762 
958.000000	 97.874474 
957.000000	 97.863578 
956.000000	 97.847593 
955.000000	 97.830098 
954.000000	 97.813022 
953.000000	 97.796425 
952.000000	 97.779578 
951.000000	 97.760560 
950.000000	 97.734452 
949.000000	 97.696276 
948.000000	 97.648744 
947.000000	 97.603051 
946.000000	 97.567633 
945.000000	 97.539128 
944.000000	 97.508843 
943.000000	 97.475204 
942.000000	 97.444997 
941.000000	 97.424877 
940.000000	 97.416874 
939.000000	 97.419823 
938.000000	 97.428812 
937.000000	 97.434280 
936.000000	 97.428242 
935.000000	 97.412335 
934.000000	 97.395222 
933.000000	 97.382341 
932.000000	 97.373650 
931.000000	 97.371041 
930.000000	 97.379645 
929.000000	 97.397762 
928.000000	 97.411925 
927.000000	 97.409035 
926.000000	 97.391330 
925.000000	 97.372374 
924.000000	 97.357976 
923.000000	 97.338517 
922.000000	 97.304793 
921.000000	 97.266681 
920.000000	 97.247424 
919.000000	 97.256975 
918.000000	 97.276765 
917.000000	 97.276533 
916.000000	 97.244742 
915.000000	 97.198731 
914.000000	 97.166457 
913.000000	 97.162113 
912.000000	 97.177921 
911.000000	 97.193150 
910.000000	 97.190072 
909.000000	 97.167410 
908.000000	 97.141630 
907.000000	 97.132009 
906.000000	 97.142361 
905.000000	 97.159897 
904.000000	 97.171905 
903.000000	 97.178149 
902.000000	 97.184662 
901.000000	 97.191139 
900.000000	 97.190097 
899.000000	 97.176953 
898.000000	 97.156936 
897.000000	 97.140909 
896.000000	 97.135236 
895.000000	 97.134956 
894.000000	 97.127645 
893.000000	 97.106244 
892.000000	 97.077096 
891.000000	 97.052137 
890.000000	 97.034850 
889.000000	 97.019371 
888.000000	 97.002351 
887.000000	 96.987982 
886.000000	 96.980255 
885.000000	 96.978254 
884.000000	 96.981392 
883.000000	 96.990561 
882.000000	 96.999659 
881.000000	 96.994885 
880.000000	 96.969601 
879.000000	 96.932763 
878.000000	 96.894396 
877.000000	 96.849468 
876.000000	 96.787317 
875.000000	 96.713375 
874.000000	 96.649658 
873.000000	 96.612770 
872.000000	 96.599543 
871.000000	 96.594521 
870.000000	 96.584533 
869.000000	 96.564525 
868.000000	 96.533977 
867.000000	 96.491116 
866.000000	 96.432429 
865.000000	 96.360703 
864.000000	 96.292499 
863.000000	 96.248894 
862.000000	 96.232479 
861.000000	 96.219330 
860.000000	 96.182350 
859.000000	 96.120899 
858.000000	 96.060527 
857.000000	 96.024029 
856.000000	 96.009303 
855.000000	 95.995807 
854.000000	 95.966902 
853.000000	 95.923912 
852.000000	 95.881492 
851.000000	 95.852374 
850.000000	 95.837522 
849.000000	 95.830491 
848.000000	 95.827249 
847.000000	 95.826534 
846.000000	 95.823888 
845.000000	 95.815791 
844.000000	 95.811680 
843.000000	 95.830470 
842.000000	 95.877056 
841.000000	 95.929259 
840.000000	 95.956496 
839.000000	 95.947013 
838.000000	 95.910240 
837.000000	 95.858807 
836.000000	 95.799908 
835.000000	 95.741972 
834.000000	 95.695734 
833.000000	 95.663142 
832.000000	 95.632371 
831.000000	 95.589813 
830.000000	 95.535572 
829.000000	 95.484620 
828.000000	 95.452551 
827.000000	 95.438771 
826.000000	 95.422810 
825.000000	 95.382591 
824.000000	 95.320596 
823.000000	 95.265822 
822.000000	 95.242900 
821.000000	 95.245130 
820.000000	 95.244981 
819.000000	 95.224445 
818.000000	 95.187621 
817.000000	 95.148976 
816.000000	 95.119441 
815.000000	 95.103969 
814.000000	 95.103871 
813.000000	 95.117029 
812.000000	 95.137835 
811.000000	 95.157638 
810.000000	 95.164146 
809.000000	 95.144845 
808.000000	 95.099599 
807.000000	 95.051248 
806.000000	 95.034100 
805.000000	 95.062593 
804.000000	 95.112616 
803.000000	 95.140449 
802.000000	 95.122936 
801.000000	 95.077204 
800.000000	 95.041128 
799.000000	 95.039162 
798.000000	 95.067810 
797.000000	 95.107031 
796.000000	 95.137465 
795.000000	 95.148203 
794.000000	 95.138460 
793.000000	 95.117812 
792.000000	 95.101029 
791.000000	 95.098140 
790.000000	 95.110728 
789.000000	 95.138249 
788.000000	 95.181285 
787.000000	 95.234091 
786.000000	 95.281452 
785.000000	 95.311535 
784.000000	 95.327569 
783.000000	 95.338765 
782.000000	 95.344302 
781.000000	 95.337334 
780.000000	 95.322755 
779.000000	 95.317954 
778.000000	 95.332746 
777.000000	 95.358401 
776.000000	 95.380094 
775.000000	 95.392011 
774.000000	 95.397924 
773.000000	 95.406075 
772.000000	 95.426591 
771.000000	 95.462926 
770.000000	 95.500043 
769.000000	 95.512828 
768.000000	 95.496329 
767.000000	 95.480318 
766.000000	 95.502524 
765.000000	 95.569764 
764.000000	 95.654223 
763.000000	 95.725309 
762.000000	 95.776496 
761.000000	 95.821310 
760.000000	 95.870552 
759.000000	 95.917724 
758.000000	 95.946554 
757.000000	 95.952399 
756.000000	 95.952820 
755.000000	 95.970685 
754.000000	 96.006809 
753.000000	 96.038612 
752.000000	 96.049933 
751.000000	 96.051534 
750.000000	 96.064364 
749.000000	 96.093030 
748.000000	 96.129056 
747.000000	 96.173169 
746.000000	 96.235708 
745.000000	 96.312257 
744.000000	 96.374790 
743.000000	 96.398282 
742.000000	 96.391026 
741.000000	 96.389477 
740.000000	 96.421672 
739.000000	 96.478310 
738.000000	 96.521532 
737.000000	 96.525222 
736.000000	 96.508048 
735.000000	 96.520468 
734.000000	 96.591905 
733.000000	 96.695249 
732.000000	 96.774186 
731.000000	 96.803317 
730.000000	 96.807550 
729.000000	 96.820489 
728.000000	 96.844030 
727.000000	 96.859723 
726.000000	 96.863605 
725.000000	 96.871839 
724.000000	 96.894220 
723.000000	 96.918180 
722.000000	 96.925949 
721.000000	 96.922008 
720.000000	 96.934017 
719.000000	 96.979455 
718.000000	 97.040985 
717.000000	 97.086778 
716.000000	 97.106976 
715.000000	 97.121261 
714.000000	 97.150827 
713.000000	 97.192132 
712.000000	 97.229374 
711.000000	 97.264347 
710.000000	 97.315428 
709.000000	 97.385904 
708.000000	 97.451927 
707.000000	 97.488935 
706.000000	 97.494292 
705.000000	 97.479597 
704.000000	 97.457103 
703.000000	 97.442099 
702.000000	 97.453527 
701.000000	 97.494010 
700.000000	 97.536594 
699.000000	 97.552926 
698.000000	 97.548513 
697.000000	 97.552530 
696.000000	 97.574462 
695.000000	 97.589197 
694.000000	 97.575869 
693.000000	 97.552243 
692.000000	 97.556364 
691.000000	 97.608090 
690.000000	 97.697098 
689.000000	 97.800932 
688.000000	 97.899595 
687.000000	 97.973317 
686.000000	 98.006984 
685.000000	 98.002781 
684.000000	 97.979504 
683.000000	 97.955505 
682.000000	 97.932754 
681.000000	 97.901557 
680.000000	 97.859901 
679.000000	 97.824790 
678.000000	 97.815243 
677.000000	 97.823640 
676.000000	 97.825031 
675.000000	 97.804885 
674.000000	 97.776950 
673.000000	 97.774743 
672.000000	 97.826929 
671.000000	 97.952808 
670.000000	 98.169790 
669.000000	 98.483361 
668.000000	 98.732223 
667.000000	 98.642537 
666.000000	 98.384319 
665.000000	 98.210053 
664.000000	 98.120476 
663.000000	 98.058647 
662.000000	 98.002490 
661.000000	 97.957318 
660.000000	 97.935778 
659.000000	 97.951269 
658.000000	 98.017747 
657.000000	 98.134594 
656.000000	 98.244379 
655.000000	 98.304502 
654.000000	 98.247037 
653.000000	 98.220797 
652.000000	 98.110866 
651.000000	 97.632191 
650.000000	 97.676311 

