PE IR                   SPECTRUM    ASCII       PEDS        1.60        
  -1
~SP.SP
18/03/23
18:00:55.00
18/03/23
18:00:55.00
pili
NI
650.000000
4









SPECTRUM 100,CPU32 MAIN 00.02.8200 12-DECEMBER-2006 10:00:00
MIR TGS
MIR
OPTKBR
78890
0.200000

4.000000
STRONG
RATIO
SPECTRUM
MAGNITUDE
UNIVERSAL ATR
DOUBLE

COMBINED


0


#HDR
-1
-1
#GR
CM-1
%T
0.00002384185791015625
0.0
4000.000000
-1.000000
3351
8
100.369449
66.900074
#DATA
4000.000000	97.897695  
3999.000000	97.897299  
3998.000000	97.896926  
3997.000000	97.896602  
3996.000000	97.898582  
3995.000000	97.905505  
3994.000000	97.917721  
3993.000000	97.932923  
3992.000000	97.948007  
3991.000000	97.961644  
3990.000000	97.974390  
3989.000000	97.985804  
3988.000000	97.992192  
3987.000000	97.988832  
3986.000000	97.975179  
3985.000000	97.957260  
3984.000000	97.943771  
3983.000000	97.939165  
3982.000000	97.940715  
3981.000000	97.942365  
3980.000000	97.941293  
3979.000000	97.940010  
3978.000000	97.942256  
3977.000000	97.948121  
3976.000000	97.954060  
3975.000000	97.956950  
3974.000000	97.956537  
3973.000000	97.953805  
3972.000000	97.948546  
3971.000000	97.939731  
3970.000000	97.927964  
3969.000000	97.916623  
3968.000000	97.909969  
3967.000000	97.910093  
3966.000000	97.915091  
3965.000000	97.919961  
3964.000000	97.920131  
3963.000000	97.914839  
3962.000000	97.907050  
3961.000000	97.899866  
3960.000000	97.893884  
3959.000000	97.888474  
3958.000000	97.885011  
3957.000000	97.887334  
3956.000000	97.898092  
3955.000000	97.915301  
3954.000000	97.932876  
3953.000000	97.944746  
3952.000000	97.948712  
3951.000000	97.947240  
3950.000000	97.945352  
3949.000000	97.946950  
3948.000000	97.952288  
3947.000000	97.958659  
3946.000000	97.963226  
3945.000000	97.965187  
3944.000000	97.965812  
3943.000000	97.967021  
3942.000000	97.968990  
3941.000000	97.969308  
3940.000000	97.965923  
3939.000000	97.960454  
3938.000000	97.957192  
3937.000000	97.958737  
3936.000000	97.962936  
3935.000000	97.964818  
3934.000000	97.960865  
3933.000000	97.951587  
3932.000000	97.940831  
3931.000000	97.933253  
3930.000000	97.931765  
3929.000000	97.935477  
3928.000000	97.940027  
3927.000000	97.941154  
3926.000000	97.938464  
3925.000000	97.936423  
3924.000000	97.940104  
3923.000000	97.949733  
3922.000000	97.961199  
3921.000000	97.970378  
3920.000000	97.975679  
3919.000000	97.977071  
3918.000000	97.974479  
3917.000000	97.968407  
3916.000000	97.961173  
3915.000000	97.956086  
3914.000000	97.954712  
3913.000000	97.955369  
3912.000000	97.954852  
3911.000000	97.951703  
3910.000000	97.948105  
3909.000000	97.947951  
3908.000000	97.952211  
3907.000000	97.957564  
3906.000000	97.959379  
3905.000000	97.957559  
3904.000000	97.958098  
3903.000000	97.965859  
3902.000000	97.978339  
3901.000000	97.989154  
3900.000000	97.994038  
3899.000000	97.993047  
3898.000000	97.987905  
3897.000000	97.980136  
3896.000000	97.971986  
3895.000000	97.965474  
3894.000000	97.960190  
3893.000000	97.954865  
3892.000000	97.951549  
3891.000000	97.954989  
3890.000000	97.964401  
3889.000000	97.973096  
3888.000000	97.975130  
3887.000000	97.970097  
3886.000000	97.965089  
3885.000000	97.969190  
3884.000000	97.982384  
3883.000000	97.995598  
3882.000000	97.999951  
3881.000000	97.994113  
3880.000000	97.985192  
3879.000000	97.980838  
3878.000000	97.981367  
3877.000000	97.983669  
3876.000000	97.987027  
3875.000000	97.994298  
3874.000000	98.008039  
3873.000000	98.024322  
3872.000000	98.032580  
3871.000000	98.026412  
3870.000000	98.013282  
3869.000000	98.005974  
3868.000000	98.007942  
3867.000000	98.014130  
3866.000000	98.017019  
3865.000000	98.011615  
3864.000000	98.000949  
3863.000000	97.994343  
3862.000000	97.998345  
3861.000000	98.009462  
3860.000000	98.016876  
3859.000000	98.013778  
3858.000000	98.005065  
3857.000000	98.002244  
3856.000000	98.010026  
3855.000000	98.019584  
3854.000000	98.025215  
3853.000000	98.033178  
3852.000000	98.038699  
3851.000000	98.030213  
3850.000000	98.012786  
3849.000000	97.998545  
3848.000000	97.994469  
3847.000000	97.999110  
3846.000000	98.005830  
3845.000000	98.008325  
3844.000000	98.004780  
3843.000000	97.998195  
3842.000000	97.993846  
3841.000000	97.994100  
3840.000000	97.996936  
3839.000000	98.000295  
3838.000000	98.004999  
3837.000000	98.011655  
3836.000000	98.017311  
3835.000000	98.018496  
3834.000000	98.015215  
3833.000000	98.009799  
3832.000000	98.004508  
3831.000000	98.000123  
3830.000000	97.995285  
3829.000000	97.988991  
3828.000000	97.982760  
3827.000000	97.979230  
3826.000000	97.979488  
3825.000000	97.981404  
3824.000000	97.980416  
3823.000000	97.972052  
3822.000000	97.958881  
3821.000000	97.952711  
3820.000000	97.958358  
3819.000000	97.966095  
3818.000000	97.967569  
3817.000000	97.965188  
3816.000000	97.968723  
3815.000000	97.983232  
3814.000000	98.001842  
3813.000000	98.015087  
3812.000000	98.019855  
3811.000000	98.017952  
3810.000000	98.012471  
3809.000000	98.005216  
3808.000000	97.997809  
3807.000000	97.994455  
3806.000000	97.999075  
3805.000000	98.010524  
3804.000000	98.024275  
3803.000000	98.033475  
3802.000000	98.034455  
3801.000000	98.031932  
3800.000000	98.028043  
3799.000000	98.019159  
3798.000000	98.005417  
3797.000000	97.991200  
3796.000000	97.981338  
3795.000000	97.977868  
3794.000000	97.979243  
3793.000000	97.982620  
3792.000000	97.985722  
3791.000000	97.986996  
3790.000000	97.986848  
3789.000000	97.988473  
3788.000000	97.995703  
3787.000000	98.009561  
3786.000000	98.026334  
3785.000000	98.039482  
3784.000000	98.044091  
3783.000000	98.039597  
3782.000000	98.029086  
3781.000000	98.017492  
3780.000000	98.009995  
3779.000000	98.009065  
3778.000000	98.011736  
3777.000000	98.012528  
3776.000000	98.009675  
3775.000000	98.006127  
3774.000000	98.005059  
3773.000000	98.005926  
3772.000000	98.005304  
3771.000000	98.002558  
3770.000000	98.003500  
3769.000000	98.013636  
3768.000000	98.028702  
3767.000000	98.038159  
3766.000000	98.034687  
3765.000000	98.019497  
3764.000000	98.000586  
3763.000000	97.987038  
3762.000000	97.984739  
3761.000000	97.994434  
3760.000000	98.011823  
3759.000000	98.028884  
3758.000000	98.038053  
3757.000000	98.037613  
3756.000000	98.033017  
3755.000000	98.032101  
3754.000000	98.037949  
3753.000000	98.046412  
3752.000000	98.052244  
3751.000000	98.058375  
3750.000000	98.070870  
3749.000000	98.087043  
3748.000000	98.100476  
3747.000000	98.109120  
3746.000000	98.112414  
3745.000000	98.113954  
3744.000000	98.119236  
3743.000000	98.120269  
3742.000000	98.106086  
3741.000000	98.082306  
3740.000000	98.062430  
3739.000000	98.054102  
3738.000000	98.053065  
3737.000000	98.048556  
3736.000000	98.036333  
3735.000000	98.026358  
3734.000000	98.032169  
3733.000000	98.054162  
3732.000000	98.077959  
3731.000000	98.087139  
3730.000000	98.077153  
3729.000000	98.057649  
3728.000000	98.042097  
3727.000000	98.038139  
3726.000000	98.044790  
3725.000000	98.054543  
3724.000000	98.059196  
3723.000000	98.055907  
3722.000000	98.049108  
3721.000000	98.044415  
3720.000000	98.043539  
3719.000000	98.045191  
3718.000000	98.047922  
3717.000000	98.052940  
3716.000000	98.062253  
3715.000000	98.074809  
3714.000000	98.083994  
3713.000000	98.081262  
3712.000000	98.066928  
3711.000000	98.050717  
3710.000000	98.039871  
3709.000000	98.034144  
3708.000000	98.031849  
3707.000000	98.034287  
3706.000000	98.042918  
3705.000000	98.054247  
3704.000000	98.059660  
3703.000000	98.052378  
3702.000000	98.036431  
3701.000000	98.023969  
3700.000000	98.022224  
3699.000000	98.029152  
3698.000000	98.038813  
3697.000000	98.047974  
3696.000000	98.057654  
3695.000000	98.070398  
3694.000000	98.086586  
3693.000000	98.103571  
3692.000000	98.117232  
3691.000000	98.123877  
3690.000000	98.123711  
3689.000000	98.120934  
3688.000000	98.117421  
3687.000000	98.111826  
3686.000000	98.107203  
3685.000000	98.108205  
3684.000000	98.113760  
3683.000000	98.117673  
3682.000000	98.117071  
3681.000000	98.117855  
3680.000000	98.128047  
3679.000000	98.146132  
3678.000000	98.155779  
3677.000000	98.136985  
3676.000000	98.095229  
3675.000000	98.065143  
3674.000000	98.065293  
3673.000000	98.083797  
3672.000000	98.103833  
3671.000000	98.114697  
3670.000000	98.117284  
3669.000000	98.118955  
3668.000000	98.119575  
3667.000000	98.115861  
3666.000000	98.109920  
3665.000000	98.106020  
3664.000000	98.105672  
3663.000000	98.107581  
3662.000000	98.111291  
3661.000000	98.118698  
3660.000000	98.129903  
3659.000000	98.139636  
3658.000000	98.140770  
3657.000000	98.133496  
3656.000000	98.127050  
3655.000000	98.126968  
3654.000000	98.129634  
3653.000000	98.130391  
3652.000000	98.128478  
3651.000000	98.126616  
3650.000000	98.131629  
3649.000000	98.148928  
3648.000000	98.173099  
3647.000000	98.192849  
3646.000000	98.202659  
3645.000000	98.204173  
3644.000000	98.202736  
3643.000000	98.204336  
3642.000000	98.211210  
3641.000000	98.219723  
3640.000000	98.222998  
3639.000000	98.217856  
3638.000000	98.207606  
3637.000000	98.197698  
3636.000000	98.190950  
3635.000000	98.188104  
3634.000000	98.191561  
3633.000000	98.204572  
3632.000000	98.225916  
3631.000000	98.246618  
3630.000000	98.256207  
3629.000000	98.258209  
3628.000000	98.265971  
3627.000000	98.279307  
3626.000000	98.290137  
3625.000000	98.296162  
3624.000000	98.298630  
3623.000000	98.298544  
3622.000000	98.295690  
3621.000000	98.289069  
3620.000000	98.281080  
3619.000000	98.279586  
3618.000000	98.289623  
3617.000000	98.305972  
3616.000000	98.317503  
3615.000000	98.314936  
3614.000000	98.298677  
3613.000000	98.280916  
3612.000000	98.275624  
3611.000000	98.285784  
3610.000000	98.301718  
3609.000000	98.310537  
3608.000000	98.308608  
3607.000000	98.304153  
3606.000000	98.307940  
3605.000000	98.323856  
3604.000000	98.346779  
3603.000000	98.366675  
3602.000000	98.375901  
3601.000000	98.374272  
3600.000000	98.368115  
3599.000000	98.364540  
3598.000000	98.367595  
3597.000000	98.379477  
3596.000000	98.400835  
3595.000000	98.427371  
3594.000000	98.450054  
3593.000000	98.460617  
3592.000000	98.458008  
3591.000000	98.448437  
3590.000000	98.439356  
3589.000000	98.434692  
3588.000000	98.436498  
3587.000000	98.446690  
3586.000000	98.463204  
3585.000000	98.479123  
3584.000000	98.487641  
3583.000000	98.486243  
3582.000000	98.477245  
3581.000000	98.467235  
3580.000000	98.463616  
3579.000000	98.469586  
3578.000000	98.482327  
3577.000000	98.496296  
3576.000000	98.507523  
3575.000000	98.513682  
3574.000000	98.512814  
3573.000000	98.505185  
3572.000000	98.496181  
3571.000000	98.494932  
3570.000000	98.507365  
3569.000000	98.529946  
3568.000000	98.551939  
3567.000000	98.566539  
3566.000000	98.576262  
3565.000000	98.586586  
3564.000000	98.600385  
3563.000000	98.617342  
3562.000000	98.634257  
3561.000000	98.646555  
3560.000000	98.651544  
3559.000000	98.651665  
3558.000000	98.653177  
3557.000000	98.660836  
3556.000000	98.673735  
3555.000000	98.686859  
3554.000000	98.696134  
3553.000000	98.702426  
3552.000000	98.710144  
3551.000000	98.722944  
3550.000000	98.741258  
3549.000000	98.762306  
3548.000000	98.780016  
3547.000000	98.787258  
3546.000000	98.781520  
3545.000000	98.768846  
3544.000000	98.759019  
3543.000000	98.756713  
3542.000000	98.758781  
3541.000000	98.760241  
3540.000000	98.761098  
3539.000000	98.766720  
3538.000000	98.781431  
3537.000000	98.803022  
3536.000000	98.823864  
3535.000000	98.837291  
3534.000000	98.842632  
3533.000000	98.844570  
3532.000000	98.848802  
3531.000000	98.857964  
3530.000000	98.870580  
3529.000000	98.882677  
3528.000000	98.890439  
3527.000000	98.892518  
3526.000000	98.890940  
3525.000000	98.889963  
3524.000000	98.893796  
3523.000000	98.904740  
3522.000000	98.922599  
3521.000000	98.944639  
3520.000000	98.965445  
3519.000000	98.978803  
3518.000000	98.982424  
3517.000000	98.981677  
3516.000000	98.986248  
3515.000000	99.001088  
3514.000000	99.021330  
3513.000000	99.036793  
3512.000000	99.040944  
3511.000000	99.034855  
3510.000000	99.024204  
3509.000000	99.014317  
3508.000000	99.008331  
3507.000000	99.007980  
3506.000000	99.013938  
3505.000000	99.025018  
3504.000000	99.037763  
3503.000000	99.048091  
3502.000000	99.053844  
3501.000000	99.055674  
3500.000000	99.055204  
3499.000000	99.052328  
3498.000000	99.045462  
3497.000000	99.034859  
3496.000000	99.024491  
3495.000000	99.018609  
3494.000000	99.017069  
3493.000000	99.016043  
3492.000000	99.013270  
3491.000000	99.010651  
3490.000000	99.011617  
3489.000000	99.017770  
3488.000000	99.028759  
3487.000000	99.043128  
3486.000000	99.057622  
3485.000000	99.067568  
3484.000000	99.070350  
3483.000000	99.067921  
3482.000000	99.064378  
3481.000000	99.061557  
3480.000000	99.058833  
3479.000000	99.056140  
3478.000000	99.054156  
3477.000000	99.051409  
3476.000000	99.044623  
3475.000000	99.033677  
3474.000000	99.024321  
3473.000000	99.023843  
3472.000000	99.034706  
3471.000000	99.053086  
3470.000000	99.072458  
3469.000000	99.087543  
3468.000000	99.096229  
3467.000000	99.100236  
3466.000000	99.103928  
3465.000000	99.110860  
3464.000000	99.120620  
3463.000000	99.129399  
3462.000000	99.134079  
3461.000000	99.135460  
3460.000000	99.137531  
3459.000000	99.143815  
3458.000000	99.154003  
3457.000000	99.163725  
3456.000000	99.167670  
3455.000000	99.164123  
3454.000000	99.157271  
3453.000000	99.154264  
3452.000000	99.159295  
3451.000000	99.169766  
3450.000000	99.178851  
3449.000000	99.182488  
3448.000000	99.183888  
3447.000000	99.189875  
3446.000000	99.201884  
3445.000000	99.212127  
3444.000000	99.210713  
3443.000000	99.196022  
3442.000000	99.176613  
3441.000000	99.162837  
3440.000000	99.158250  
3439.000000	99.160062  
3438.000000	99.164949  
3437.000000	99.171337  
3436.000000	99.176795  
3435.000000	99.177165  
3434.000000	99.170301  
3433.000000	99.159272  
3432.000000	99.150775  
3431.000000	99.150320  
3430.000000	99.158811  
3429.000000	99.172051  
3428.000000	99.183152  
3427.000000	99.187595  
3426.000000	99.187270  
3425.000000	99.188299  
3424.000000	99.193674  
3423.000000	99.199413  
3422.000000	99.199455  
3421.000000	99.193082  
3420.000000	99.185088  
3419.000000	99.179421  
3418.000000	99.175092  
3417.000000	99.168412  
3416.000000	99.157506  
3415.000000	99.144778  
3414.000000	99.136488  
3413.000000	99.139265  
3412.000000	99.154387  
3411.000000	99.174695  
3410.000000	99.188933  
3409.000000	99.190593  
3408.000000	99.182461  
3407.000000	99.172617  
3406.000000	99.166481  
3405.000000	99.162717  
3404.000000	99.155611  
3403.000000	99.141148  
3402.000000	99.121498  
3401.000000	99.103653  
3400.000000	99.093395  
3399.000000	99.090937  
3398.000000	99.092404  
3397.000000	99.093939  
3396.000000	99.093103  
3395.000000	99.088240  
3394.000000	99.079848  
3393.000000	99.072699  
3392.000000	99.073314  
3391.000000	99.083495  
3390.000000	99.097669  
3389.000000	99.107614  
3388.000000	99.108931  
3387.000000	99.103037  
3386.000000	99.095147  
3385.000000	99.091165  
3384.000000	99.094118  
3383.000000	99.101154  
3382.000000	99.104948  
3381.000000	99.100253  
3380.000000	99.089448  
3379.000000	99.080525  
3378.000000	99.079518  
3377.000000	99.085527  
3376.000000	99.092701  
3375.000000	99.095869  
3374.000000	99.094056  
3373.000000	99.089787  
3372.000000	99.086055  
3371.000000	99.084119  
3370.000000	99.083900  
3369.000000	99.085805  
3368.000000	99.091174  
3367.000000	99.100582  
3366.000000	99.112230  
3365.000000	99.122387  
3364.000000	99.127248  
3363.000000	99.124697  
3362.000000	99.115643  
3361.000000	99.104095  
3360.000000	99.094489  
3359.000000	99.087670  
3358.000000	99.080405  
3357.000000	99.070329  
3356.000000	99.060330  
3355.000000	99.055467  
3354.000000	99.055075  
3353.000000	99.051008  
3352.000000	99.036499  
3351.000000	99.016381  
3350.000000	99.005686  
3349.000000	99.015881  
3348.000000	99.042415  
3347.000000	99.066911  
3346.000000	99.072710  
3345.000000	99.058662  
3344.000000	99.038731  
3343.000000	99.029034  
3342.000000	99.034909  
3341.000000	99.048434  
3340.000000	99.056196  
3339.000000	99.049611  
3338.000000	99.029850  
3337.000000	99.005117  
3336.000000	98.984174  
3335.000000	98.971772  
3334.000000	98.968103  
3333.000000	98.969905  
3332.000000	98.971530  
3331.000000	98.967894  
3330.000000	98.959767  
3329.000000	98.955680  
3328.000000	98.965045  
3327.000000	98.987412  
3326.000000	99.010322  
3325.000000	99.019912  
3324.000000	99.013176  
3323.000000	98.998698  
3322.000000	98.986243  
3321.000000	98.977602  
3320.000000	98.967486  
3319.000000	98.951178  
3318.000000	98.929862  
3317.000000	98.909123  
3316.000000	98.893923  
3315.000000	98.885454  
3314.000000	98.881641  
3313.000000	98.879192  
3312.000000	98.875165  
3311.000000	98.868269  
3310.000000	98.859876  
3309.000000	98.853033  
3308.000000	98.849108  
3307.000000	98.845455  
3306.000000	98.837321  
3305.000000	98.822063  
3304.000000	98.801104  
3303.000000	98.778673  
3302.000000	98.759907  
3301.000000	98.749195  
3300.000000	98.747639  
3299.000000	98.751039  
3298.000000	98.752092  
3297.000000	98.746089  
3296.000000	98.734367  
3295.000000	98.721961  
3294.000000	98.713026  
3293.000000	98.708827  
3292.000000	98.708334  
3291.000000	98.709018  
3290.000000	98.707660  
3289.000000	98.702104  
3288.000000	98.692894  
3287.000000	98.682564  
3286.000000	98.672614  
3285.000000	98.661144  
3284.000000	98.644308  
3283.000000	98.621312  
3282.000000	98.597975  
3281.000000	98.583467  
3280.000000	98.581769  
3279.000000	98.587355  
3278.000000	98.591203  
3277.000000	98.590424  
3276.000000	98.589688  
3275.000000	98.593249  
3274.000000	98.598302  
3273.000000	98.597288  
3272.000000	98.584644  
3271.000000	98.560602  
3270.000000	98.530862  
3269.000000	98.503959  
3268.000000	98.486425  
3267.000000	98.477913  
3266.000000	98.471998  
3265.000000	98.463579  
3264.000000	98.454521  
3263.000000	98.450352  
3262.000000	98.452775  
3261.000000	98.457874  
3260.000000	98.460639  
3259.000000	98.458560  
3258.000000	98.450877  
3257.000000	98.437255  
3256.000000	98.418349  
3255.000000	98.395995  
3254.000000	98.371838  
3253.000000	98.347107  
3252.000000	98.324343  
3251.000000	98.307398  
3250.000000	98.297936  
3249.000000	98.292418  
3248.000000	98.284028  
3247.000000	98.267851  
3246.000000	98.244021  
3245.000000	98.216954  
3244.000000	98.193057  
3243.000000	98.178509  
3242.000000	98.176105  
3241.000000	98.181679  
3240.000000	98.184583  
3239.000000	98.175116  
3238.000000	98.153165  
3237.000000	98.128197  
3236.000000	98.109373  
3235.000000	98.096988  
3234.000000	98.085200  
3233.000000	98.071280  
3232.000000	98.058439  
3231.000000	98.049014  
3230.000000	98.038876  
3229.000000	98.021769  
3228.000000	97.997869  
3227.000000	97.975060  
3226.000000	97.961384  
3225.000000	97.958029  
3224.000000	97.960033  
3223.000000	97.961891  
3222.000000	97.960976  
3221.000000	97.956135  
3220.000000	97.945027  
3219.000000	97.924750  
3218.000000	97.895774  
3217.000000	97.864596  
3216.000000	97.841144  
3215.000000	97.832308  
3214.000000	97.836935  
3213.000000	97.846326  
3212.000000	97.849588  
3211.000000	97.840063  
3210.000000	97.818923  
3209.000000	97.793319  
3208.000000	97.769801  
3207.000000	97.748692  
3206.000000	97.725251  
3205.000000	97.696369  
3204.000000	97.665196  
3203.000000	97.638881  
3202.000000	97.622244  
3201.000000	97.613359  
3200.000000	97.604088  
3199.000000	97.585378  
3198.000000	97.554394  
3197.000000	97.517734  
3196.000000	97.486047  
3195.000000	97.464081  
3194.000000	97.446650  
3193.000000	97.424767  
3192.000000	97.394180  
3191.000000	97.356938  
3190.000000	97.317002  
3189.000000	97.277316  
3188.000000	97.240487  
3187.000000	97.208518  
3186.000000	97.179980  
3185.000000	97.149415  
3184.000000	97.111928  
3183.000000	97.068528  
3182.000000	97.025521  
3181.000000	96.988355  
3180.000000	96.956796  
3179.000000	96.926217  
3178.000000	96.892291  
3177.000000	96.853340  
3176.000000	96.809373  
3175.000000	96.761827  
3174.000000	96.715141  
3173.000000	96.675630  
3172.000000	96.645805  
3171.000000	96.620753  
3170.000000	96.593136  
3169.000000	96.561847  
3168.000000	96.533126  
3167.000000	96.512545  
3166.000000	96.498352  
3165.000000	96.483745  
3164.000000	96.463346  
3163.000000	96.436002  
3162.000000	96.403101  
3161.000000	96.366290  
3160.000000	96.326161  
3159.000000	96.282184  
3158.000000	96.235052  
3157.000000	96.189638  
3156.000000	96.152892  
3155.000000	96.126208  
3154.000000	96.101307  
3153.000000	96.066959  
3152.000000	96.019987  
3151.000000	95.967363  
3150.000000	95.917268  
3149.000000	95.870710  
3148.000000	95.823292  
3147.000000	95.773243  
3146.000000	95.724851  
3145.000000	95.683064  
3144.000000	95.645817  
3143.000000	95.603495  
3142.000000	95.546995  
3141.000000	95.475923  
3140.000000	95.398142  
3139.000000	95.321828  
3138.000000	95.249363  
3137.000000	95.178746  
3136.000000	95.108512  
3135.000000	95.039194  
3134.000000	94.970456  
3133.000000	94.898596  
3132.000000	94.818030  
3131.000000	94.725702  
3130.000000	94.624376  
3129.000000	94.521338  
3128.000000	94.422958  
3127.000000	94.329929  
3126.000000	94.237753  
3125.000000	94.140909  
3124.000000	94.035471  
3123.000000	93.919397  
3122.000000	93.793991  
3121.000000	93.665803  
3120.000000	93.543456  
3119.000000	93.429762  
3118.000000	93.318446  
3117.000000	93.201002  
3116.000000	93.075969  
3115.000000	92.949417  
3114.000000	92.827236  
3113.000000	92.709461  
3112.000000	92.592217  
3111.000000	92.472956  
3110.000000	92.352726  
3109.000000	92.234253  
3108.000000	92.118860  
3107.000000	92.005479  
3106.000000	91.892722  
3105.000000	91.781126  
3104.000000	91.672188  
3103.000000	91.565541  
3102.000000	91.458754  
3101.000000	91.350089  
3100.000000	91.238961  
3099.000000	91.122842  
3098.000000	90.996871  
3097.000000	90.859761  
3096.000000	90.719030  
3095.000000	90.586886  
3094.000000	90.469791  
3093.000000	90.363531  
3092.000000	90.258750  
3091.000000	90.149815  
3090.000000	90.037939  
3089.000000	89.927218  
3088.000000	89.819290  
3087.000000	89.712068  
3086.000000	89.603121  
3085.000000	89.493653  
3084.000000	89.388764  
3083.000000	89.294037  
3082.000000	89.212179  
3081.000000	89.142642  
3080.000000	89.083566  
3079.000000	89.033788  
3078.000000	88.993438  
3077.000000	88.962877  
3076.000000	88.941029  
3075.000000	88.925334  
3074.000000	88.914321  
3073.000000	88.910000  
3072.000000	88.916610  
3071.000000	88.936613  
3070.000000	88.968522  
3069.000000	89.008565  
3068.000000	89.053656  
3067.000000	89.102928  
3066.000000	89.157205  
3065.000000	89.216721  
3064.000000	89.278585  
3063.000000	89.337603  
3062.000000	89.391718  
3061.000000	89.446286  
3060.000000	89.510141  
3059.000000	89.586184  
3058.000000	89.667552  
3057.000000	89.744112  
3056.000000	89.811211  
3055.000000	89.870743  
3054.000000	89.925762  
3053.000000	89.977076  
3052.000000	90.025063  
3051.000000	90.072261  
3050.000000	90.122435  
3049.000000	90.177356  
3048.000000	90.235356  
3047.000000	90.293554  
3046.000000	90.350989  
3045.000000	90.408255  
3044.000000	90.463511  
3043.000000	90.510613  
3042.000000	90.543615  
3041.000000	90.563182  
3040.000000	90.576579  
3039.000000	90.591029  
3038.000000	90.608924  
3037.000000	90.629458  
3036.000000	90.651697  
3035.000000	90.673828  
3034.000000	90.691697  
3033.000000	90.701548  
3032.000000	90.704440  
3031.000000	90.706176  
3030.000000	90.712639  
3029.000000	90.726242  
3028.000000	90.746235  
3027.000000	90.770228  
3026.000000	90.794946  
3025.000000	90.817208  
3024.000000	90.835608  
3023.000000	90.851311  
3022.000000	90.866911  
3021.000000	90.884376  
3020.000000	90.903578  
3019.000000	90.922580  
3018.000000	90.939882  
3017.000000	90.956782  
3016.000000	90.976656  
3015.000000	91.000932  
3014.000000	91.026071  
3013.000000	91.045478  
3012.000000	91.054736  
3011.000000	91.054600  
3010.000000	91.048297  
3009.000000	91.034865  
3008.000000	91.004628  
3007.000000	90.943015  
3006.000000	90.843070  
3005.000000	90.717478  
3004.000000	90.598168  
3003.000000	90.521024  
3002.000000	90.507664  
3001.000000	90.556987  
3000.000000	90.649609  
2999.000000	90.758821  
2998.000000	90.860971  
2997.000000	90.940667  
2996.000000	90.989173  
2995.000000	90.999593  
2994.000000	90.964618  
2993.000000	90.878664  
2992.000000	90.740885  
2991.000000	90.557109  
2990.000000	90.343125  
2989.000000	90.127805  
2988.000000	89.947440  
2987.000000	89.829204  
2986.000000	89.777152  
2985.000000	89.776607  
2984.000000	89.812658  
2983.000000	89.882458  
2982.000000	89.989629  
2981.000000	90.130651  
2980.000000	90.289273  
2979.000000	90.442916  
2978.000000	90.572482  
2977.000000	90.667089  
2976.000000	90.722666  
2975.000000	90.739409  
2974.000000	90.723258  
2973.000000	90.691005  
2972.000000	90.670763  
2971.000000	90.690668  
2970.000000	90.761345  
2969.000000	90.868568  
2968.000000	90.984768  
2967.000000	91.088606  
2966.000000	91.174529  
2965.000000	91.247248  
2964.000000	91.311367  
2963.000000	91.366007  
2962.000000	91.405514  
2961.000000	91.423440  
2960.000000	91.417256  
2959.000000	91.390404  
2958.000000	91.348865  
2957.000000	91.295533  
2956.000000	91.229605  
2955.000000	91.151858  
2954.000000	91.068469  
2953.000000	90.988369  
2952.000000	90.918387  
2951.000000	90.862017  
2950.000000	90.820780  
2949.000000	90.794077  
2948.000000	90.778304  
2947.000000	90.768209  
2946.000000	90.759139  
2945.000000	90.746911  
2944.000000	90.727261  
2943.000000	90.698520  
2942.000000	90.664913  
2941.000000	90.634069  
2940.000000	90.609842  
2939.000000	90.588725  
2938.000000	90.563748  
2937.000000	90.530224  
2936.000000	90.487743  
2935.000000	90.439798  
2934.000000	90.393118  
2933.000000	90.354818  
2932.000000	90.327094  
2931.000000	90.305236  
2930.000000	90.282384  
2929.000000	90.255299  
2928.000000	90.224733  
2927.000000	90.192427  
2926.000000	90.160567  
2925.000000	90.132584  
2924.000000	90.110783  
2923.000000	90.092907  
2922.000000	90.074043  
2921.000000	90.053037  
2920.000000	90.035057  
2919.000000	90.026893  
2918.000000	90.030790  
2917.000000	90.043063  
2916.000000	90.057074  
2915.000000	90.067155  
2914.000000	90.071909  
2913.000000	90.075341  
2912.000000	90.083859  
2911.000000	90.100284  
2910.000000	90.120682  
2909.000000	90.137910  
2908.000000	90.148568  
2907.000000	90.155794  
2906.000000	90.165300  
2905.000000	90.179203  
2904.000000	90.194133  
2903.000000	90.204621  
2902.000000	90.207511  
2901.000000	90.202713  
2900.000000	90.192164  
2899.000000	90.178205  
2898.000000	90.163536  
2897.000000	90.150499  
2896.000000	90.139536  
2895.000000	90.128745  
2894.000000	90.115114  
2893.000000	90.095789  
2892.000000	90.068708  
2891.000000	90.033922  
2890.000000	89.994918  
2889.000000	89.956981  
2888.000000	89.922902  
2887.000000	89.890734  
2886.000000	89.856315  
2885.000000	89.817193  
2884.000000	89.774215  
2883.000000	89.731353  
2882.000000	89.694614  
2881.000000	89.668053  
2880.000000	89.648432  
2879.000000	89.625872  
2878.000000	89.593255  
2877.000000	89.554430  
2876.000000	89.520214  
2875.000000	89.496655  
2874.000000	89.480104  
2873.000000	89.463556  
2872.000000	89.444040  
2871.000000	89.422501  
2870.000000	89.399404  
2869.000000	89.373359  
2868.000000	89.343508  
2867.000000	89.311995  
2866.000000	89.284168  
2865.000000	89.265836  
2864.000000	89.258214  
2863.000000	89.254881  
2862.000000	89.245863  
2861.000000	89.226359  
2860.000000	89.200827  
2859.000000	89.178071  
2858.000000	89.164036  
2857.000000	89.160179  
2856.000000	89.165966  
2855.000000	89.179974  
2854.000000	89.199202  
2853.000000	89.220203  
2852.000000	89.241694  
2851.000000	89.264598  
2850.000000	89.288797  
2849.000000	89.311258  
2848.000000	89.328894  
2847.000000	89.342829  
2846.000000	89.357993  
2845.000000	89.377323  
2844.000000	89.397257  
2843.000000	89.410842  
2842.000000	89.415580  
2841.000000	89.416132  
2840.000000	89.417749  
2839.000000	89.418569  
2838.000000	89.411286  
2837.000000	89.392465  
2836.000000	89.367410  
2835.000000	89.344441  
2834.000000	89.326163  
2833.000000	89.308182  
2832.000000	89.285248  
2831.000000	89.256462  
2830.000000	89.224693  
2829.000000	89.192987  
2828.000000	89.162463  
2827.000000	89.132298  
2826.000000	89.100233  
2825.000000	89.063318  
2824.000000	89.019388  
2823.000000	88.968576  
2822.000000	88.913160  
2821.000000	88.855922  
2820.000000	88.799021  
2819.000000	88.744270  
2818.000000	88.692960  
2817.000000	88.644220  
2816.000000	88.594712  
2815.000000	88.542147  
2814.000000	88.489184  
2813.000000	88.441963  
2812.000000	88.404326  
2811.000000	88.375444  
2810.000000	88.353337  
2809.000000	88.337687  
2808.000000	88.327142  
2807.000000	88.316716  
2806.000000	88.301899  
2805.000000	88.284873  
2804.000000	88.273285  
2803.000000	88.272122  
2802.000000	88.278919  
2801.000000	88.287368  
2800.000000	88.293263  
2799.000000	88.296245  
2798.000000	88.298049  
2797.000000	88.300852  
2796.000000	88.306227  
2795.000000	88.314411  
2794.000000	88.325071  
2793.000000	88.338941  
2792.000000	88.357193  
2791.000000	88.378516  
2790.000000	88.398761  
2789.000000	88.415284  
2788.000000	88.430548  
2787.000000	88.449388  
2786.000000	88.472998  
2785.000000	88.497421  
2784.000000	88.518134  
2783.000000	88.534283  
2782.000000	88.547740  
2781.000000	88.559564  
2780.000000	88.569291  
2779.000000	88.577313  
2778.000000	88.585953  
2777.000000	88.596905  
2776.000000	88.608247  
2775.000000	88.615395  
2774.000000	88.615312  
2773.000000	88.608997  
2772.000000	88.599628  
2771.000000	88.589284  
2770.000000	88.578110  
2769.000000	88.565559  
2768.000000	88.551092  
2767.000000	88.534160  
2766.000000	88.515200  
2765.000000	88.496780  
2764.000000	88.481968  
2763.000000	88.470212  
2762.000000	88.455544  
2761.000000	88.430549  
2760.000000	88.392856  
2759.000000	88.347456  
2758.000000	88.302062  
2757.000000	88.260061  
2756.000000	88.217791  
2755.000000	88.168124  
2754.000000	88.105939  
2753.000000	88.030442  
2752.000000	87.944289  
2751.000000	87.852519  
2750.000000	87.761693  
2749.000000	87.677125  
2748.000000	87.599195  
2747.000000	87.523426  
2746.000000	87.445468  
2745.000000	87.365405  
2744.000000	87.286635  
2743.000000	87.211837  
2742.000000	87.141542  
2741.000000	87.075718  
2740.000000	87.014916  
2739.000000	86.959908  
2738.000000	86.911524  
2737.000000	86.870823  
2736.000000	86.838245  
2735.000000	86.812347  
2734.000000	86.790326  
2733.000000	86.770315  
2732.000000	86.753067  
2731.000000	86.741418  
2730.000000	86.738114  
2729.000000	86.743476  
2728.000000	86.754830  
2727.000000	86.768993  
2726.000000	86.785963  
2725.000000	86.809386  
2724.000000	86.842380  
2723.000000	86.883204  
2722.000000	86.925979  
2721.000000	86.965771  
2720.000000	87.002870  
2719.000000	87.042489  
2718.000000	87.090297  
2717.000000	87.147372  
2716.000000	87.209004  
2715.000000	87.269326  
2714.000000	87.327338  
2713.000000	87.387082  
2712.000000	87.451431  
2711.000000	87.517863  
2710.000000	87.582295  
2709.000000	87.645928  
2708.000000	87.715875  
2707.000000	87.799012  
2706.000000	87.896621  
2705.000000	88.004628  
2704.000000	88.117384  
2703.000000	88.231083  
2702.000000	88.345185  
2701.000000	88.461334  
2700.000000	88.580460  
2699.000000	88.700903  
2698.000000	88.819604  
2697.000000	88.934266  
2696.000000	89.043639  
2695.000000	89.147167  
2694.000000	89.246487  
2693.000000	89.346545  
2692.000000	89.452373  
2691.000000	89.563827  
2690.000000	89.674929  
2689.000000	89.778997  
2688.000000	89.873296  
2687.000000	89.958772  
2686.000000	90.037502  
2685.000000	90.111344  
2684.000000	90.181311  
2683.000000	90.246643  
2682.000000	90.305405  
2681.000000	90.357238  
2680.000000	90.404939  
2679.000000	90.452346  
2678.000000	90.501084  
2677.000000	90.550076  
2676.000000	90.597674  
2675.000000	90.643275  
2674.000000	90.686846  
2673.000000	90.727535  
2672.000000	90.763365  
2671.000000	90.792886  
2670.000000	90.817440  
2669.000000	90.841089  
2668.000000	90.867165  
2667.000000	90.894941  
2666.000000	90.920288  
2665.000000	90.939184  
2664.000000	90.949702  
2663.000000	90.951480  
2662.000000	90.945305  
2661.000000	90.933449  
2660.000000	90.918467  
2659.000000	90.900606  
2658.000000	90.877299  
2657.000000	90.845886  
2656.000000	90.806173  
2655.000000	90.760239  
2654.000000	90.710724  
2653.000000	90.659518  
2652.000000	90.606960  
2651.000000	90.551680  
2650.000000	90.491549  
2649.000000	90.424479  
2648.000000	90.348054  
2647.000000	90.260305  
2646.000000	90.163359  
2645.000000	90.065372  
2644.000000	89.975122  
2643.000000	89.893548  
2642.000000	89.812899  
2641.000000	89.725307  
2640.000000	89.630237  
2639.000000	89.532925  
2638.000000	89.438289  
2637.000000	89.347969  
2636.000000	89.261168  
2635.000000	89.176185  
2634.000000	89.092213  
2633.000000	89.011057  
2632.000000	88.935931  
2631.000000	88.867256  
2630.000000	88.800650  
2629.000000	88.730059  
2628.000000	88.651982  
2627.000000	88.566513  
2626.000000	88.476663  
2625.000000	88.387833  
2624.000000	88.305150  
2623.000000	88.228387  
2622.000000	88.150668  
2621.000000	88.064986  
2620.000000	87.971871  
2619.000000	87.878884  
2618.000000	87.792806  
2617.000000	87.713848  
2616.000000	87.636962  
2615.000000	87.556490  
2614.000000	87.468724  
2613.000000	87.371718  
2612.000000	87.265060  
2611.000000	87.151166  
2610.000000	87.036147  
2609.000000	86.926900  
2608.000000	86.825304  
2607.000000	86.726546  
2606.000000	86.626209  
2605.000000	86.529124  
2604.000000	86.447679  
2603.000000	86.389460  
2602.000000	86.348922  
2601.000000	86.313816  
2600.000000	86.278674  
2599.000000	86.249777  
2598.000000	86.237786  
2597.000000	86.248168  
2596.000000	86.278660  
2595.000000	86.323309  
2594.000000	86.377623  
2593.000000	86.441051  
2592.000000	86.515558  
2591.000000	86.601383  
2590.000000	86.694055  
2589.000000	86.786768  
2588.000000	86.876379  
2587.000000	86.966319  
2586.000000	87.063013  
2585.000000	87.170169  
2584.000000	87.286744  
2583.000000	87.408802  
2582.000000	87.531754  
2581.000000	87.651578  
2580.000000	87.766073  
2579.000000	87.875961  
2578.000000	87.984310  
2577.000000	88.094422  
2576.000000	88.207874  
2575.000000	88.323346  
2574.000000	88.435985  
2573.000000	88.538538  
2572.000000	88.625488  
2571.000000	88.697583  
2570.000000	88.761605  
2569.000000	88.824696  
2568.000000	88.889387  
2567.000000	88.954836  
2566.000000	89.021385  
2565.000000	89.090896  
2564.000000	89.161690  
2563.000000	89.225647  
2562.000000	89.273136  
2561.000000	89.301124  
2560.000000	89.315547  
2559.000000	89.326252  
2558.000000	89.340609  
2557.000000	89.360456  
2556.000000	89.381956  
2555.000000	89.397999  
2554.000000	89.404069  
2553.000000	89.403987  
2552.000000	89.407757  
2551.000000	89.420765  
2550.000000	89.435649  
2549.000000	89.437465  
2548.000000	89.417266  
2547.000000	89.379019  
2546.000000	89.333690  
2545.000000	89.289718  
2544.000000	89.250320  
2543.000000	89.216479  
2542.000000	89.188210  
2541.000000	89.162849  
2540.000000	89.135646  
2539.000000	89.104124  
2538.000000	89.070685  
2537.000000	89.039812  
2536.000000	89.014090  
2535.000000	88.994287  
2534.000000	88.981684  
2533.000000	88.977769  
2532.000000	88.981918  
2531.000000	88.991618  
2530.000000	89.004982  
2529.000000	89.020960  
2528.000000	89.036878  
2527.000000	89.048161  
2526.000000	89.051630  
2525.000000	89.047581  
2524.000000	89.037973  
2523.000000	89.024307  
2522.000000	89.008202  
2521.000000	88.992173  
2520.000000	88.978526  
2519.000000	88.969237  
2518.000000	88.968526  
2517.000000	88.983556  
2516.000000	89.019613  
2515.000000	89.074733  
2514.000000	89.141166  
2513.000000	89.212470  
2512.000000	89.287904  
2511.000000	89.369580  
2510.000000	89.456516  
2509.000000	89.543056  
2508.000000	89.624409  
2507.000000	89.703897  
2506.000000	89.792647  
2505.000000	89.899001  
2504.000000	90.017607  
2503.000000	90.131542  
2502.000000	90.226902  
2501.000000	90.304476  
2500.000000	90.376992  
2499.000000	90.457098  
2498.000000	90.548544  
2497.000000	90.645270  
2496.000000	90.735879  
2495.000000	90.811395  
2494.000000	90.872478  
2493.000000	90.928140  
2492.000000	90.984471  
2491.000000	91.036063  
2490.000000	91.072338  
2489.000000	91.091677  
2488.000000	91.105057  
2487.000000	91.125293  
2486.000000	91.156223  
2485.000000	91.192699  
2484.000000	91.227373  
2483.000000	91.256372  
2482.000000	91.281654  
2481.000000	91.309144  
2480.000000	91.342054  
2479.000000	91.375743  
2478.000000	91.402294  
2477.000000	91.420303  
2476.000000	91.436032  
2475.000000	91.454799  
2474.000000	91.477370  
2473.000000	91.507014  
2472.000000	91.553044  
2471.000000	91.621226  
2470.000000	91.704224  
2469.000000	91.787107  
2468.000000	91.859926  
2467.000000	91.919987  
2466.000000	91.965916  
2465.000000	91.998597  
2464.000000	92.027807  
2463.000000	92.068271  
2462.000000	92.124435  
2461.000000	92.184671  
2460.000000	92.235236  
2459.000000	92.275900  
2458.000000	92.316980  
2457.000000	92.363876  
2456.000000	92.410584  
2455.000000	92.448158  
2454.000000	92.474747  
2453.000000	92.496153  
2452.000000	92.520402  
2451.000000	92.553804  
2450.000000	92.599441  
2449.000000	92.655700  
2448.000000	92.715723  
2447.000000	92.770098  
2446.000000	92.811518  
2445.000000	92.837944  
2444.000000	92.852780  
2443.000000	92.863034  
2442.000000	92.876398  
2441.000000	92.897519  
2440.000000	92.925136  
2439.000000	92.953114  
2438.000000	92.976159  
2437.000000	92.995765  
2436.000000	93.020084  
2435.000000	93.056630  
2434.000000	93.104676  
2433.000000	93.155336  
2432.000000	93.199494  
2431.000000	93.234993  
2430.000000	93.265513  
2429.000000	93.293667  
2428.000000	93.317622  
2427.000000	93.335136  
2426.000000	93.348610  
2425.000000	93.363765  
2424.000000	93.384119  
2423.000000	93.409473  
2422.000000	93.440011  
2421.000000	93.478751  
2420.000000	93.527817  
2419.000000	93.583886  
2418.000000	93.639355  
2417.000000	93.687327  
2416.000000	93.724475  
2415.000000	93.751053  
2414.000000	93.770766  
2413.000000	93.789583  
2412.000000	93.811355  
2411.000000	93.834462  
2410.000000	93.855469  
2409.000000	93.876022  
2408.000000	93.902232  
2407.000000	93.935492  
2406.000000	93.967421  
2405.000000	93.987529  
2404.000000	93.994833  
2403.000000	93.999141  
2402.000000	94.011105  
2401.000000	94.033244  
2400.000000	94.060472  
2399.000000	94.087077  
2398.000000	94.112071  
2397.000000	94.138627  
2396.000000	94.169382  
2395.000000	94.202430  
2394.000000	94.231999  
2393.000000	94.253263  
2392.000000	94.266457  
2391.000000	94.276320  
2390.000000	94.288423  
2389.000000	94.306783  
2388.000000	94.333728  
2387.000000	94.369311  
2386.000000	94.409414  
2385.000000	94.446091  
2384.000000	94.472800  
2383.000000	94.490538  
2382.000000	94.507612  
2381.000000	94.532073  
2380.000000	94.564815  
2379.000000	94.600826  
2378.000000	94.635573  
2377.000000	94.667039  
2376.000000	94.692523  
2375.000000	94.709775  
2374.000000	94.722318  
2373.000000	94.738901  
2372.000000	94.762952  
2371.000000	94.787969  
2370.000000	94.808288  
2369.000000	94.827109  
2368.000000	94.844569  
2367.000000	94.848612  
2366.000000	94.834481  
2365.000000	94.826219  
2364.000000	94.855463  
2363.000000	94.923501  
2362.000000	94.999330  
2361.000000	95.048625  
2360.000000	95.059518  
2359.000000	95.035661  
2358.000000	94.990305  
2357.000000	94.958034  
2356.000000	94.971406  
2355.000000	95.034774  
2354.000000	95.119979  
2353.000000	95.192899  
2352.000000	95.232743  
2351.000000	95.230652  
2350.000000	95.202896  
2349.000000	95.177037  
2348.000000	95.171546  
2347.000000	95.185258  
2346.000000	95.196001  
2345.000000	95.196716  
2344.000000	95.197469  
2343.000000	95.215106  
2342.000000	95.242093  
2341.000000	95.254470  
2340.000000	95.252708  
2339.000000	95.255145  
2338.000000	95.277785  
2337.000000	95.311090  
2336.000000	95.338137  
2335.000000	95.348217  
2334.000000	95.349114  
2333.000000	95.349174  
2332.000000	95.356268  
2331.000000	95.362576  
2330.000000	95.365826  
2329.000000	95.357405  
2328.000000	95.329366  
2327.000000	95.277363  
2326.000000	95.207130  
2325.000000	95.147468  
2324.000000	95.126058  
2323.000000	95.152257  
2322.000000	95.201119  
2321.000000	95.236597  
2320.000000	95.249083  
2319.000000	95.250744  
2318.000000	95.260445  
2317.000000	95.278146  
2316.000000	95.302218  
2315.000000	95.329047  
2314.000000	95.358382  
2313.000000	95.377089  
2312.000000	95.372204  
2311.000000	95.341967  
2310.000000	95.306559  
2309.000000	95.287445  
2308.000000	95.290261  
2307.000000	95.300905  
2306.000000	95.303409  
2305.000000	95.290022  
2304.000000	95.261309  
2303.000000	95.217950  
2302.000000	95.165322  
2301.000000	95.115842  
2300.000000	95.087653  
2299.000000	95.087921  
2298.000000	95.105751  
2297.000000	95.118350  
2296.000000	95.111506  
2295.000000	95.090206  
2294.000000	95.070375  
2293.000000	95.061569  
2292.000000	95.060307  
2291.000000	95.062274  
2290.000000	95.071686  
2289.000000	95.094900  
2288.000000	95.126223  
2287.000000	95.152329  
2286.000000	95.169645  
2285.000000	95.189973  
2284.000000	95.223464  
2283.000000	95.264911  
2282.000000	95.301668  
2281.000000	95.328866  
2280.000000	95.349530  
2279.000000	95.365536  
2278.000000	95.378351  
2277.000000	95.393762  
2276.000000	95.415648  
2275.000000	95.435418  
2274.000000	95.439517  
2273.000000	95.426293  
2272.000000	95.405817  
2271.000000	95.383120  
2270.000000	95.354312  
2269.000000	95.321676  
2268.000000	95.298767  
2267.000000	95.292919  
2266.000000	95.293000  
2265.000000	95.284347  
2264.000000	95.270518  
2263.000000	95.269811  
2262.000000	95.290694  
2261.000000	95.319726  
2260.000000	95.337431  
2259.000000	95.344962  
2258.000000	95.369367  
2257.000000	95.437753  
2256.000000	95.545836  
2255.000000	95.657131  
2254.000000	95.736835  
2253.000000	95.780285  
2252.000000	95.805462  
2251.000000	95.827204  
2250.000000	95.850808  
2249.000000	95.883004  
2248.000000	95.932017  
2247.000000	95.994151  
2246.000000	96.053470  
2245.000000	96.097711  
2244.000000	96.125672  
2243.000000	96.138974  
2242.000000	96.139566  
2241.000000	96.138362  
2240.000000	96.152029  
2239.000000	96.183875  
2238.000000	96.217981  
2237.000000	96.238591  
2236.000000	96.245964  
2235.000000	96.247467  
2234.000000	96.244872  
2233.000000	96.240485  
2232.000000	96.246143  
2231.000000	96.272735  
2230.000000	96.313397  
2229.000000	96.346662  
2228.000000	96.357533  
2227.000000	96.350916  
2226.000000	96.344111  
2225.000000	96.348600  
2224.000000	96.360056  
2223.000000	96.368362  
2222.000000	96.376900  
2221.000000	96.401919  
2220.000000	96.445078  
2219.000000	96.478442  
2218.000000	96.474333  
2217.000000	96.444492  
2216.000000	96.428327  
2215.000000	96.442200  
2214.000000	96.463707  
2213.000000	96.471169  
2212.000000	96.474754  
2211.000000	96.495728  
2210.000000	96.533908  
2209.000000	96.571553  
2208.000000	96.596794  
2207.000000	96.609025  
2206.000000	96.610784  
2205.000000	96.606880  
2204.000000	96.603547  
2203.000000	96.599655  
2202.000000	96.587950  
2201.000000	96.570888  
2200.000000	96.561719  
2199.000000	96.562608  
2198.000000	96.557999  
2197.000000	96.540103  
2196.000000	96.523711  
2195.000000	96.521713  
2194.000000	96.522702  
2193.000000	96.510164  
2192.000000	96.490003  
2191.000000	96.480050  
2190.000000	96.483670  
2189.000000	96.492488  
2188.000000	96.504158  
2187.000000	96.516607  
2186.000000	96.514807  
2185.000000	96.488938  
2184.000000	96.461610  
2183.000000	96.469434  
2182.000000	96.513418  
2181.000000	96.550322  
2180.000000	96.542229  
2179.000000	96.497289  
2178.000000	96.452133  
2177.000000	96.426398  
2176.000000	96.402987  
2175.000000	96.349979  
2174.000000	96.257782  
2173.000000	96.153491  
2172.000000	96.077974  
2171.000000	96.050613  
2170.000000	96.059032  
2169.000000	96.076715  
2168.000000	96.080049  
2167.000000	96.051257  
2166.000000	95.983661  
2165.000000	95.894617  
2164.000000	95.821344  
2163.000000	95.795561  
2162.000000	95.833449  
2161.000000	95.948970  
2160.000000	96.146141  
2159.000000	96.379585  
2158.000000	96.555150  
2157.000000	96.605212  
2156.000000	96.542426  
2155.000000	96.421644  
2154.000000	96.281225  
2153.000000	96.137418  
2152.000000	96.007209  
2151.000000	95.908371  
2150.000000	95.841518  
2149.000000	95.789528  
2148.000000	95.735773  
2147.000000	95.674139  
2146.000000	95.603997  
2145.000000	95.525335  
2144.000000	95.437938  
2143.000000	95.339493  
2142.000000	95.227758  
2141.000000	95.109005  
2140.000000	94.998315  
2139.000000	94.905456  
2138.000000	94.825512  
2137.000000	94.748963  
2136.000000	94.676147  
2135.000000	94.614898  
2134.000000	94.566806  
2133.000000	94.522463  
2132.000000	94.469495  
2131.000000	94.401118  
2130.000000	94.318327  
2129.000000	94.227861  
2128.000000	94.137785  
2127.000000	94.053132  
2126.000000	93.976094  
2125.000000	93.909579  
2124.000000	93.857508  
2123.000000	93.821288  
2122.000000	93.799023  
2121.000000	93.788818  
2120.000000	93.789811  
2119.000000	93.798567  
2118.000000	93.807303  
2117.000000	93.808502  
2116.000000	93.801389  
2115.000000	93.793739  
2114.000000	93.798221  
2113.000000	93.825409  
2112.000000	93.875688  
2111.000000	93.935617  
2110.000000	93.984653  
2109.000000	94.009639  
2108.000000	94.015783  
2107.000000	94.024769  
2106.000000	94.060757  
2105.000000	94.132624  
2104.000000	94.225055  
2103.000000	94.309514  
2102.000000	94.369263  
2101.000000	94.413537  
2100.000000	94.463717  
2099.000000	94.527628  
2098.000000	94.594117  
2097.000000	94.652571  
2096.000000	94.708651  
2095.000000	94.776074  
2094.000000	94.858441  
2093.000000	94.944292  
2092.000000	95.016722  
2091.000000	95.064252  
2090.000000	95.086271  
2089.000000	95.093196  
2088.000000	95.100491  
2087.000000	95.119762  
2086.000000	95.154785  
2085.000000	95.203733  
2084.000000	95.262772  
2083.000000	95.329423  
2082.000000	95.405042  
2081.000000	95.491058  
2080.000000	95.579734  
2079.000000	95.654558  
2078.000000	95.706766  
2077.000000	95.745844  
2076.000000	95.782803  
2075.000000	95.809467  
2074.000000	95.811814  
2073.000000	95.802339  
2072.000000	95.818207  
2071.000000	95.879332  
2070.000000	95.964973  
2069.000000	96.039532  
2068.000000	96.088125  
2067.000000	96.118244  
2066.000000	96.140938  
2065.000000	96.163297  
2064.000000	96.189485  
2063.000000	96.217500  
2062.000000	96.240450  
2061.000000	96.254804  
2060.000000	96.257018  
2059.000000	96.232048  
2058.000000	96.166422  
2057.000000	96.081018  
2056.000000	96.026202  
2055.000000	96.025018  
2054.000000	96.039419  
2053.000000	96.015824  
2052.000000	95.952856  
2051.000000	95.902239  
2050.000000	95.911555  
2049.000000	95.983345  
2048.000000	96.085867  
2047.000000	96.184980  
2046.000000	96.260320  
2045.000000	96.308684  
2044.000000	96.341230  
2043.000000	96.367529  
2042.000000	96.381872  
2041.000000	96.374547  
2040.000000	96.350816  
2039.000000	96.325694  
2038.000000	96.308145  
2037.000000	96.305294  
2036.000000	96.332533  
2035.000000	96.399692  
2034.000000	96.490889  
2033.000000	96.574879  
2032.000000	96.633471  
2031.000000	96.667679  
2030.000000	96.686831  
2029.000000	96.709315  
2028.000000	96.759245  
2027.000000	96.837183  
2026.000000	96.904087  
2025.000000	96.919567  
2024.000000	96.894325  
2023.000000	96.879726  
2022.000000	96.908375  
2021.000000	96.964972  
2020.000000	97.011042  
2019.000000	97.018357  
2018.000000	96.980882  
2017.000000	96.917242  
2016.000000	96.862886  
2015.000000	96.842930  
2014.000000	96.854097  
2013.000000	96.879871  
2012.000000	96.911699  
2011.000000	96.943642  
2010.000000	96.962371  
2009.000000	96.967908  
2008.000000	96.995184  
2007.000000	97.081065  
2006.000000	97.207264  
2005.000000	97.305095  
2004.000000	97.326709  
2003.000000	97.288757  
2002.000000	97.242982  
2001.000000	97.225330  
2000.000000	97.236009  
1999.000000	97.252410  
1998.000000	97.249299  
1997.000000	97.217613  
1996.000000	97.174677  
1995.000000	97.153370  
1994.000000	97.175674  
1993.000000	97.235206  
1992.000000	97.303963  
1991.000000	97.355081  
1990.000000	97.377677  
1989.000000	97.373620  
1988.000000	97.346626  
1987.000000	97.297250  
1986.000000	97.229299  
1985.000000	97.157983  
1984.000000	97.104564  
1983.000000	97.080372  
1982.000000	97.082072  
1981.000000	97.104068  
1980.000000	97.147650  
1979.000000	97.214468  
1978.000000	97.294579  
1977.000000	97.369440  
1976.000000	97.425561  
1975.000000	97.462625  
1974.000000	97.491749  
1973.000000	97.526541  
1972.000000	97.566931  
1971.000000	97.592160  
1970.000000	97.581028  
1969.000000	97.539476  
1968.000000	97.495123  
1967.000000	97.462939  
1966.000000	97.434206  
1965.000000	97.404944  
1964.000000	97.394234  
1963.000000	97.421617  
1962.000000	97.478190  
1961.000000	97.528542  
1960.000000	97.537561  
1959.000000	97.495269  
1958.000000	97.426549  
1957.000000	97.380302  
1956.000000	97.393575  
1955.000000	97.457757  
1954.000000	97.526561  
1953.000000	97.560521  
1952.000000	97.556125  
1951.000000	97.530957  
1950.000000	97.501715  
1949.000000	97.483051  
1948.000000	97.488190  
1947.000000	97.516361  
1946.000000	97.550463  
1945.000000	97.578129  
1944.000000	97.604484  
1943.000000	97.633541  
1942.000000	97.650085  
1941.000000	97.637372  
1940.000000	97.603691  
1939.000000	97.575779  
1938.000000	97.573979  
1937.000000	97.601169  
1936.000000	97.647681  
1935.000000	97.697909  
1934.000000	97.735266  
1933.000000	97.751360  
1932.000000	97.751908  
1931.000000	97.747430  
1930.000000	97.744143  
1929.000000	97.744625  
1928.000000	97.751174  
1927.000000	97.762701  
1926.000000	97.770455  
1925.000000	97.766653  
1924.000000	97.750578  
1923.000000	97.729635  
1922.000000	97.717062  
1921.000000	97.727011  
1920.000000	97.762532  
1919.000000	97.804331  
1918.000000	97.820891  
1917.000000	97.803520  
1916.000000	97.775723  
1915.000000	97.759787  
1914.000000	97.755365  
1913.000000	97.755526  
1912.000000	97.764433  
1911.000000	97.787177  
1910.000000	97.813150  
1909.000000	97.824255  
1908.000000	97.818900  
1907.000000	97.813577  
1906.000000	97.820265  
1905.000000	97.838030  
1904.000000	97.859275  
1903.000000	97.878435  
1902.000000	97.892420  
1901.000000	97.897749  
1900.000000	97.891488  
1899.000000	97.875729  
1898.000000	97.860236  
1897.000000	97.860569  
1896.000000	97.883719  
1895.000000	97.917273  
1894.000000	97.941013  
1893.000000	97.950295  
1892.000000	97.958391  
1891.000000	97.975717  
1890.000000	97.997225  
1889.000000	98.013219  
1888.000000	98.022181  
1887.000000	98.025771  
1886.000000	98.023225  
1885.000000	98.017063  
1884.000000	98.014045  
1883.000000	98.015770  
1882.000000	98.018670  
1881.000000	98.024065  
1880.000000	98.036981  
1879.000000	98.052264  
1878.000000	98.054438  
1877.000000	98.040170  
1876.000000	98.027002  
1875.000000	98.029419  
1874.000000	98.040130  
1873.000000	98.043862  
1872.000000	98.037941  
1871.000000	98.029629  
1870.000000	98.022134  
1869.000000	98.015507  
1868.000000	98.015412  
1867.000000	98.024846  
1866.000000	98.036349  
1865.000000	98.044354  
1864.000000	98.051448  
1863.000000	98.055724  
1862.000000	98.044874  
1861.000000	98.013159  
1860.000000	97.975778  
1859.000000	97.954648  
1858.000000	97.955646  
1857.000000	97.968578  
1856.000000	97.981597  
1855.000000	97.986576  
1854.000000	97.979805  
1853.000000	97.967288  
1852.000000	97.962320  
1851.000000	97.973812  
1850.000000	97.994456  
1849.000000	98.012137  
1848.000000	98.024169  
1847.000000	98.034639  
1846.000000	98.042463  
1845.000000	98.040553  
1844.000000	98.028874  
1843.000000	98.020411  
1842.000000	98.025907  
1841.000000	98.044327  
1840.000000	98.069205  
1839.000000	98.092335  
1838.000000	98.106246  
1837.000000	98.113451  
1836.000000	98.121757  
1835.000000	98.131547  
1834.000000	98.136920  
1833.000000	98.139141  
1832.000000	98.147194  
1831.000000	98.162283  
1830.000000	98.171501  
1829.000000	98.173408  
1828.000000	98.184482  
1827.000000	98.209524  
1826.000000	98.228801  
1825.000000	98.224256  
1824.000000	98.208066  
1823.000000	98.202589  
1822.000000	98.207257  
1821.000000	98.209816  
1820.000000	98.214493  
1819.000000	98.235192  
1818.000000	98.266116  
1817.000000	98.283576  
1816.000000	98.274619  
1815.000000	98.249322  
1814.000000	98.222931  
1813.000000	98.202023  
1812.000000	98.189905  
1811.000000	98.184828  
1810.000000	98.176435  
1809.000000	98.156206  
1808.000000	98.131126  
1807.000000	98.116207  
1806.000000	98.115047  
1805.000000	98.118403  
1804.000000	98.117315  
1803.000000	98.109092  
1802.000000	98.094460  
1801.000000	98.077166  
1800.000000	98.069911  
1799.000000	98.077761  
1798.000000	98.086504  
1797.000000	98.078822  
1796.000000	98.056928  
1795.000000	98.037745  
1794.000000	98.030381  
1793.000000	98.025919  
1792.000000	98.015985  
1791.000000	98.004165  
1790.000000	97.992012  
1789.000000	97.976207  
1788.000000	97.962376  
1787.000000	97.960093  
1786.000000	97.965774  
1785.000000	97.965424  
1784.000000	97.956233  
1783.000000	97.949141  
1782.000000	97.946934  
1781.000000	97.933946  
1780.000000	97.904888  
1779.000000	97.872615  
1778.000000	97.845704  
1777.000000	97.811419  
1776.000000	97.753368  
1775.000000	97.676116  
1774.000000	97.598587  
1773.000000	97.530152  
1772.000000	97.468478  
1771.000000	97.417187  
1770.000000	97.378630  
1769.000000	97.344406  
1768.000000	97.299765  
1767.000000	97.234789  
1766.000000	97.150966  
1765.000000	97.054584  
1764.000000	96.952504  
1763.000000	96.849693  
1762.000000	96.750426  
1761.000000	96.661718  
1760.000000	96.592386  
1759.000000	96.537573  
1758.000000	96.480570  
1757.000000	96.402681  
1756.000000	96.303815  
1755.000000	96.203524  
1754.000000	96.115942  
1753.000000	96.042776  
1752.000000	95.981328  
1751.000000	95.927947  
1750.000000	95.879700  
1749.000000	95.837263  
1748.000000	95.798124  
1747.000000	95.762090  
1746.000000	95.732064  
1745.000000	95.709511  
1744.000000	95.694859  
1743.000000	95.686409  
1742.000000	95.686550  
1741.000000	95.703740  
1740.000000	95.741047  
1739.000000	95.785927  
1738.000000	95.830836  
1737.000000	95.895750  
1736.000000	96.033875  
1735.000000	96.287597  
1734.000000	96.601804  
1733.000000	96.870774  
1732.000000	97.072464  
1731.000000	97.235463  
1730.000000	97.376516  
1729.000000	97.506487  
1728.000000	97.642461  
1727.000000	97.798422  
1726.000000	97.969515  
1725.000000	98.135649  
1724.000000	98.275811  
1723.000000	98.369576  
1722.000000	98.407607  
1721.000000	98.402071  
1720.000000	98.383608  
1719.000000	98.377764  
1718.000000	98.382100  
1717.000000	98.389482  
1716.000000	98.415245  
1715.000000	98.461934  
1714.000000	98.502890  
1713.000000	98.522049  
1712.000000	98.533001  
1711.000000	98.550519  
1710.000000	98.567851  
1709.000000	98.571668  
1708.000000	98.568800  
1707.000000	98.575085  
1706.000000	98.576393  
1705.000000	98.541191  
1704.000000	98.471713  
1703.000000	98.404887  
1702.000000	98.376227  
1701.000000	98.382429  
1700.000000	98.376697  
1699.000000	98.360241  
1698.000000	98.356394  
1697.000000	98.357775  
1696.000000	98.350365  
1695.000000	98.333822  
1694.000000	98.321232  
1693.000000	98.315153  
1692.000000	98.311524  
1691.000000	98.306934  
1690.000000	98.288762  
1689.000000	98.238277  
1688.000000	98.155353  
1687.000000	98.066204  
1686.000000	98.000832  
1685.000000	97.970096  
1684.000000	97.954408  
1683.000000	97.948848  
1682.000000	97.950878  
1681.000000	97.941975  
1680.000000	97.906433  
1679.000000	97.846376  
1678.000000	97.774573  
1677.000000	97.704066  
1676.000000	97.638332  
1675.000000	97.565881  
1674.000000	97.481029  
1673.000000	97.387555  
1672.000000	97.286812  
1671.000000	97.165217  
1670.000000	97.000799  
1669.000000	96.792847  
1668.000000	96.575425  
1667.000000	96.372662  
1666.000000	96.174686  
1665.000000	95.961558  
1664.000000	95.726550  
1663.000000	95.473310  
1662.000000	95.212460  
1661.000000	94.954810  
1660.000000	94.709451  
1659.000000	94.477576  
1658.000000	94.247289  
1657.000000	94.001851  
1656.000000	93.746191  
1655.000000	93.515436  
1654.000000	93.338811  
1653.000000	93.201170  
1652.000000	93.098929  
1651.000000	93.028446  
1650.000000	92.951430  
1649.000000	92.827952  
1648.000000	92.658023  
1647.000000	92.466146  
1646.000000	92.267831  
1645.000000	92.060023  
1644.000000	91.841242  
1643.000000	91.612565  
1642.000000	91.367389  
1641.000000	91.098326  
1640.000000	90.818676  
1639.000000	90.550469  
1638.000000	90.291906  
1637.000000	90.017433  
1636.000000	89.711281  
1635.000000	89.397508  
1634.000000	89.092355  
1633.000000	88.775430  
1632.000000	88.426564  
1631.000000	88.049205  
1630.000000	87.650909  
1629.000000	87.231655  
1628.000000	86.805216  
1627.000000	86.402687  
1626.000000	86.038783  
1625.000000	85.703563  
1624.000000	85.397147  
1623.000000	85.136759  
1622.000000	84.923735  
1621.000000	84.732748  
1620.000000	84.551773  
1619.000000	84.404974  
1618.000000	84.335856  
1617.000000	84.370850  
1616.000000	84.492335  
1615.000000	84.651998  
1614.000000	84.807548  
1613.000000	84.947127  
1612.000000	85.079981  
1611.000000	85.200532  
1610.000000	85.263145  
1609.000000	85.207110  
1608.000000	84.997369  
1607.000000	84.624635  
1606.000000	84.085774  
1605.000000	83.380652  
1604.000000	82.528829  
1603.000000	81.565212  
1602.000000	80.513041  
1601.000000	79.377182  
1600.000000	78.170944  
1599.000000	76.927156  
1598.000000	75.668547  
1597.000000	74.394861  
1596.000000	73.121355  
1595.000000	71.901697  
1594.000000	70.785344  
1593.000000	69.782182  
1592.000000	68.900590  
1591.000000	68.179132  
1590.000000	67.643084  
1589.000000	67.267017  
1588.000000	67.018778  
1587.000000	66.900074  
1586.000000	66.910031  
1585.000000	67.012631  
1584.000000	67.178221  
1583.000000	67.418931  
1582.000000	67.735938  
1581.000000	68.074331  
1580.000000	68.375816  
1579.000000	68.654524  
1578.000000	68.993373  
1577.000000	69.475759  
1576.000000	70.081416  
1575.000000	70.662125  
1574.000000	71.091458  
1573.000000	71.367925  
1572.000000	71.586187  
1571.000000	71.874716  
1570.000000	72.287404  
1569.000000	72.731438  
1568.000000	73.097358  
1567.000000	73.398582  
1566.000000	73.707357  
1565.000000	74.045188  
1564.000000	74.360404  
1563.000000	74.597189  
1562.000000	74.761713  
1561.000000	74.957169  
1560.000000	75.374100  
1559.000000	76.076815  
1558.000000	76.767784  
1557.000000	77.215233  
1556.000000	77.512411  
1555.000000	77.810797  
1554.000000	78.161210  
1553.000000	78.510235  
1552.000000	78.814357  
1551.000000	79.096522  
1550.000000	79.380843  
1549.000000	79.638948  
1548.000000	79.834815  
1547.000000	79.986320  
1546.000000	80.136113  
1545.000000	80.292113  
1544.000000	80.421871  
1543.000000	80.507231  
1542.000000	80.573414  
1541.000000	80.668954  
1540.000000	80.812285  
1539.000000	80.948563  
1538.000000	80.999876  
1537.000000	80.947297  
1536.000000	80.818072  
1535.000000	80.662318  
1534.000000	80.522680  
1533.000000	80.395755  
1532.000000	80.257481  
1531.000000	80.110113  
1530.000000	79.982107  
1529.000000	79.903299  
1528.000000	79.891064  
1527.000000	79.947851  
1526.000000	80.049098  
1525.000000	80.141416  
1524.000000	80.191426  
1523.000000	80.227143  
1522.000000	80.307279  
1521.000000	80.437880  
1520.000000	80.566022  
1519.000000	80.676519  
1518.000000	80.813124  
1517.000000	81.011982  
1516.000000	81.251933  
1515.000000	81.493681  
1514.000000	81.740859  
1513.000000	82.016547  
1512.000000	82.315266  
1511.000000	82.601711  
1510.000000	82.857439  
1509.000000	83.108882  
1508.000000	83.422686  
1507.000000	83.851644  
1506.000000	84.337008  
1505.000000	84.750534  
1504.000000	85.057751  
1503.000000	85.304280  
1502.000000	85.543436  
1501.000000	85.803047  
1500.000000	86.078799  
1499.000000	86.366839  
1498.000000	86.686393  
1497.000000	87.049934  
1496.000000	87.428533  
1495.000000	87.778807  
1494.000000	88.084296  
1493.000000	88.355086  
1492.000000	88.626241  
1491.000000	88.941116  
1490.000000	89.298561  
1489.000000	89.636438  
1488.000000	89.910692  
1487.000000	90.136669  
1486.000000	90.334376  
1485.000000	90.492669  
1484.000000	90.602902  
1483.000000	90.691144  
1482.000000	90.784939  
1481.000000	90.879747  
1480.000000	90.958695  
1479.000000	91.027222  
1478.000000	91.091659  
1477.000000	91.128673  
1476.000000	91.110560  
1475.000000	91.048196  
1474.000000	90.969061  
1473.000000	90.866822  
1472.000000	90.726197  
1471.000000	90.564536  
1470.000000	90.396912  
1469.000000	90.209733  
1468.000000	89.991657  
1467.000000	89.750952  
1466.000000	89.494929  
1465.000000	89.211459  
1464.000000	88.896963  
1463.000000	88.565783  
1462.000000	88.209530  
1461.000000	87.789007  
1460.000000	87.256115  
1459.000000	86.552028  
1458.000000	85.601684  
1457.000000	84.445589  
1456.000000	83.366522  
1455.000000	82.605203  
1454.000000	82.153136  
1453.000000	81.922999  
1452.000000	81.860433  
1451.000000	81.920946  
1450.000000	82.072780  
1449.000000	82.335995  
1448.000000	82.763655  
1447.000000	83.370568  
1446.000000	84.119330  
1445.000000	84.959049  
1444.000000	85.843621  
1443.000000	86.719694  
1442.000000	87.531175  
1441.000000	88.231288  
1440.000000	88.798536  
1439.000000	89.262948  
1438.000000	89.699398  
1437.000000	90.150851  
1436.000000	90.559733  
1435.000000	90.862367  
1434.000000	91.078337  
1433.000000	91.251796  
1432.000000	91.398413  
1431.000000	91.517914  
1430.000000	91.614226  
1429.000000	91.682857  
1428.000000	91.700767  
1427.000000	91.656013  
1426.000000	91.560077  
1425.000000	91.411519  
1424.000000	91.187088  
1423.000000	90.877205  
1422.000000	90.488587  
1421.000000	89.994242  
1420.000000	89.323613  
1419.000000	88.442144  
1418.000000	87.407769  
1417.000000	86.263208  
1416.000000	84.980170  
1415.000000	83.546875  
1414.000000	82.009465  
1413.000000	80.450885  
1412.000000	78.990578  
1411.000000	77.774451  
1410.000000	76.906972  
1409.000000	76.421055  
1408.000000	76.328473  
1407.000000	76.635238  
1406.000000	77.299321  
1405.000000	78.220093  
1404.000000	79.276717  
1403.000000	80.366737  
1402.000000	81.443828  
1401.000000	82.530294  
1400.000000	83.657313  
1399.000000	84.775762  
1398.000000	85.781955  
1397.000000	86.642934  
1396.000000	87.412436  
1395.000000	88.134644  
1394.000000	88.788621  
1393.000000	89.333007  
1392.000000	89.761571  
1391.000000	90.097189  
1390.000000	90.367024  
1389.000000	90.588807  
1388.000000	90.761982  
1387.000000	90.864510  
1386.000000	90.864377  
1385.000000	90.734605  
1384.000000	90.475235  
1383.000000	90.146015  
1382.000000	89.866165  
1381.000000	89.747720  
1380.000000	89.820990  
1379.000000	90.027619  
1378.000000	90.272793  
1377.000000	90.488049  
1376.000000	90.656476  
1375.000000	90.792467  
1374.000000	90.906762  
1373.000000	90.990362  
1372.000000	91.028608  
1371.000000	91.014560  
1370.000000	90.935851  
1369.000000	90.753602  
1368.000000	90.420431  
1367.000000	89.928171  
1366.000000	89.310831  
1365.000000	88.583115  
1364.000000	87.696537  
1363.000000	86.579456  
1362.000000	85.222402  
1361.000000	83.689987  
1360.000000	82.050168  
1359.000000	80.343034  
1358.000000	78.611827  
1357.000000	76.929856  
1356.000000	75.401472  
1355.000000	74.147735  
1354.000000	73.275284  
1353.000000	72.843508  
1352.000000	72.859863  
1351.000000	73.290473  
1350.000000	74.060098  
1349.000000	75.056755  
1348.000000	76.165971  
1347.000000	77.305158  
1346.000000	78.426287  
1345.000000	79.499346  
1344.000000	80.506533  
1343.000000	81.448837  
1342.000000	82.347075  
1341.000000	83.227843  
1340.000000	84.101465  
1339.000000	84.951787  
1338.000000	85.752952  
1337.000000	86.493889  
1336.000000	87.180631  
1335.000000	87.822959  
1334.000000	88.427748  
1333.000000	89.000644  
1332.000000	89.544779  
1331.000000	90.056191  
1330.000000	90.525290  
1329.000000	90.943749  
1328.000000	91.307931  
1327.000000	91.617373  
1326.000000	91.873577  
1325.000000	92.077597  
1324.000000	92.225574  
1323.000000	92.307074  
1322.000000	92.307663  
1321.000000	92.208914  
1320.000000	91.985262  
1319.000000	91.605782  
1318.000000	91.041001  
1317.000000	90.264344  
1316.000000	89.246835  
1315.000000	87.956831  
1314.000000	86.372026  
1313.000000	84.503067  
1312.000000	82.419828  
1311.000000	80.259639  
1310.000000	78.206832  
1309.000000	76.460772  
1308.000000	75.200174  
1307.000000	74.527015  
1306.000000	74.417578  
1305.000000	74.743997  
1304.000000	75.352437  
1303.000000	76.116048  
1302.000000	76.940035  
1301.000000	77.759913  
1300.000000	78.547804  
1299.000000	79.303660  
1298.000000	80.031443  
1297.000000	80.728812  
1296.000000	81.395788  
1295.000000	82.037741  
1294.000000	82.654786  
1293.000000	83.237927  
1292.000000	83.780524  
1291.000000	84.287162  
1290.000000	84.767652  
1289.000000	85.227720  
1288.000000	85.668895  
1287.000000	86.092112  
1286.000000	86.496734  
1285.000000	86.879610  
1284.000000	87.239647  
1283.000000	87.581163  
1282.000000	87.909064  
1281.000000	88.223002  
1280.000000	88.520254  
1279.000000	88.802175  
1278.000000	89.072707  
1277.000000	89.331842  
1276.000000	89.576423  
1275.000000	89.807802  
1274.000000	90.033053  
1273.000000	90.257106  
1272.000000	90.478214  
1271.000000	90.692213  
1270.000000	90.895707  
1269.000000	91.083098  
1268.000000	91.246958  
1267.000000	91.386238  
1266.000000	91.510234  
1265.000000	91.630674  
1264.000000	91.753613  
1263.000000	91.880787  
1262.000000	92.011611  
1261.000000	92.139219  
1260.000000	92.251300  
1259.000000	92.341844  
1258.000000	92.417536  
1257.000000	92.486134  
1256.000000	92.542483  
1255.000000	92.570813  
1254.000000	92.555187  
1253.000000	92.481709  
1252.000000	92.337459  
1251.000000	92.119044  
1250.000000	91.842464  
1249.000000	91.538715  
1248.000000	91.240497  
1247.000000	90.972405  
1246.000000	90.741545  
1245.000000	90.526752  
1244.000000	90.280416  
1243.000000	89.951932  
1242.000000	89.518234  
1241.000000	88.999658  
1240.000000	88.456435  
1239.000000	87.971166  
1238.000000	87.620534  
1237.000000	87.450073  
1236.000000	87.468468  
1235.000000	87.655378  
1234.000000	87.969288  
1233.000000	88.357628  
1232.000000	88.773487  
1231.000000	89.190700  
1230.000000	89.605146  
1229.000000	90.021208  
1228.000000	90.437337  
1227.000000	90.845531  
1226.000000	91.242007  
1225.000000	91.631098  
1224.000000	92.011984  
1223.000000	92.360263  
1222.000000	92.627289  
1221.000000	92.768133  
1220.000000	92.783913  
1219.000000	92.743929  
1218.000000	92.755904  
1217.000000	92.897442  
1216.000000	93.168598  
1215.000000	93.505834  
1214.000000	93.834667  
1213.000000	94.109813  
1212.000000	94.320344  
1211.000000	94.476964  
1210.000000	94.599014  
1209.000000	94.703190  
1208.000000	94.798559  
1207.000000	94.892226  
1206.000000	94.994492  
1205.000000	95.112467  
1204.000000	95.243509  
1203.000000	95.382887  
1202.000000	95.534040  
1201.000000	95.702171  
1200.000000	95.880754  
1199.000000	96.055580  
1198.000000	96.222754  
1197.000000	96.393424  
1196.000000	96.579472  
1195.000000	96.781931  
1194.000000	96.992590  
1193.000000	97.198102  
1192.000000	97.382947  
1191.000000	97.539271  
1190.000000	97.676648  
1189.000000	97.813439  
1188.000000	97.956242  
1187.000000	98.095362  
1186.000000	98.221303  
1185.000000	98.336910  
1184.000000	98.450816  
1183.000000	98.566956  
1182.000000	98.683379  
1181.000000	98.794872  
1180.000000	98.894089  
1179.000000	98.975348  
1178.000000	99.039588  
1177.000000	99.092333  
1176.000000	99.137036  
1175.000000	99.172917  
1174.000000	99.195751  
1173.000000	99.195659  
1172.000000	99.157387  
1171.000000	99.068747  
1170.000000	98.927455  
1169.000000	98.738632  
1168.000000	98.515162  
1167.000000	98.287373  
1166.000000	98.101460  
1165.000000	97.993856  
1164.000000	97.966559  
1163.000000	97.989752  
1162.000000	98.021307  
1161.000000	98.019013  
1160.000000	97.944813  
1159.000000	97.772725  
1158.000000	97.492579  
1157.000000	97.096700  
1156.000000	96.565566  
1155.000000	95.876389  
1154.000000	95.027156  
1153.000000	94.054025  
1152.000000	93.038654  
1151.000000	92.103816  
1150.000000	91.383273  
1149.000000	90.975062  
1148.000000	90.912041  
1147.000000	91.160439  
1146.000000	91.634583  
1145.000000	92.222925  
1144.000000	92.822136  
1143.000000	93.366391  
1142.000000	93.835967  
1141.000000	94.240176  
1140.000000	94.592721  
1139.000000	94.902983  
1138.000000	95.181068  
1137.000000	95.437262  
1136.000000	95.673070  
1135.000000	95.879187  
1134.000000	96.045460  
1133.000000	96.170141  
1132.000000	96.259589  
1131.000000	96.322740  
1130.000000	96.364712  
1129.000000	96.380655  
1128.000000	96.354363  
1127.000000	96.263137  
1126.000000	96.081544  
1125.000000	95.779333  
1124.000000	95.319108  
1123.000000	94.654922  
1122.000000	93.724700  
1121.000000	92.445910  
1120.000000	90.744144  
1119.000000	88.618225  
1118.000000	86.197249  
1117.000000	83.747146  
1116.000000	81.621203  
1115.000000	80.152619  
1114.000000	79.519052  
1113.000000	79.682057  
1112.000000	80.453825  
1111.000000	81.606554  
1110.000000	82.936380  
1109.000000	84.284869  
1108.000000	85.547513  
1107.000000	86.673039  
1106.000000	87.649945  
1105.000000	88.488330  
1104.000000	89.208991  
1103.000000	89.839344  
1102.000000	90.406726  
1101.000000	90.929841  
1100.000000	91.416931  
1099.000000	91.871244  
1098.000000	92.290096  
1097.000000	92.662599  
1096.000000	92.978421  
1095.000000	93.243073  
1094.000000	93.477894  
1093.000000	93.701739  
1092.000000	93.918742  
1091.000000	94.124201  
1090.000000	94.312766  
1089.000000	94.479087  
1088.000000	94.621497  
1087.000000	94.749146  
1086.000000	94.875026  
1085.000000	94.997992  
1084.000000	95.103790  
1083.000000	95.189305  
1082.000000	95.273160  
1081.000000	95.374349  
1080.000000	95.491432  
1079.000000	95.610551  
1078.000000	95.723384  
1077.000000	95.828927  
1076.000000	95.928112  
1075.000000	96.026412  
1074.000000	96.132737  
1073.000000	96.246754  
1072.000000	96.355476  
1071.000000	96.449195  
1070.000000	96.531467  
1069.000000	96.607511  
1068.000000	96.675456  
1067.000000	96.737057  
1066.000000	96.802645  
1065.000000	96.874194  
1064.000000	96.937054  
1063.000000	96.981627  
1062.000000	97.021389  
1061.000000	97.075859  
1060.000000	97.146811  
1059.000000	97.224563  
1058.000000	97.305852  
1057.000000	97.389453  
1056.000000	97.463845  
1055.000000	97.517433  
1054.000000	97.556635  
1053.000000	97.599369  
1052.000000	97.655727  
1051.000000	97.729722  
1050.000000	97.833429  
1049.000000	97.980472  
1048.000000	98.168683  
1047.000000	98.385509  
1046.000000	98.626670  
1045.000000	98.894731  
1044.000000	99.182895  
1043.000000	99.473346  
1042.000000	99.749291  
1041.000000	99.996953  
1040.000000	100.197417 
1039.000000	100.327905 
1038.000000	100.369449 
1037.000000	100.302925 
1036.000000	100.100183 
1035.000000	99.727907  
1034.000000	99.158154  
1033.000000	98.377985  
1032.000000	97.413123  
1031.000000	96.355996  
1030.000000	95.347106  
1029.000000	94.506500  
1028.000000	93.891648  
1027.000000	93.519100  
1026.000000	93.390729  
1025.000000	93.470630  
1024.000000	93.645846  
1023.000000	93.733118  
1022.000000	93.534482  
1021.000000	92.896981  
1020.000000	91.760066  
1019.000000	90.202578  
1018.000000	88.459684  
1017.000000	86.864164  
1016.000000	85.732390  
1015.000000	85.255473  
1014.000000	85.441827  
1013.000000	86.139172  
1012.000000	87.119367  
1011.000000	88.170974  
1010.000000	89.157537  
1009.000000	90.025608  
1008.000000	90.772544  
1007.000000	91.410808  
1006.000000	91.955287  
1005.000000	92.423599  
1004.000000	92.830835  
1003.000000	93.182569  
1002.000000	93.477921  
1001.000000	93.718667  
1000.000000	93.912985  
999.000000	 94.072109  
998.000000	 94.204563  
997.000000	 94.312271  
996.000000	 94.393018  
995.000000	 94.448819  
994.000000	 94.490051  
993.000000	 94.528469  
992.000000	 94.568073  
991.000000	 94.605346  
990.000000	 94.635606  
989.000000	 94.655992  
988.000000	 94.665302  
987.000000	 94.665063  
986.000000	 94.658891  
985.000000	 94.648287  
984.000000	 94.632539  
983.000000	 94.614947  
982.000000	 94.603987  
981.000000	 94.604906  
980.000000	 94.615848  
979.000000	 94.636558  
978.000000	 94.674572  
977.000000	 94.736320  
976.000000	 94.816883  
975.000000	 94.905728  
974.000000	 94.999571  
973.000000	 95.102372  
972.000000	 95.213966  
971.000000	 95.325117  
970.000000	 95.423951  
969.000000	 95.503692  
968.000000	 95.565916  
967.000000	 95.619854  
966.000000	 95.675237  
965.000000	 95.731673  
964.000000	 95.779460  
963.000000	 95.815688  
962.000000	 95.853477  
961.000000	 95.907418  
960.000000	 95.974228  
959.000000	 96.036100  
958.000000	 96.080122  
957.000000	 96.105836  
956.000000	 96.116130  
955.000000	 96.110862  
954.000000	 96.090171  
953.000000	 96.056561  
952.000000	 96.013265  
951.000000	 95.966390  
950.000000	 95.927315  
949.000000	 95.905888  
948.000000	 95.900839  
947.000000	 95.902206  
946.000000	 95.903920  
945.000000	 95.910555  
944.000000	 95.932435  
943.000000	 95.976667  
942.000000	 96.039455  
941.000000	 96.102714  
940.000000	 96.142365  
939.000000	 96.148078  
938.000000	 96.135042  
937.000000	 96.129535  
936.000000	 96.141171  
935.000000	 96.152706  
934.000000	 96.136696  
933.000000	 96.078787  
932.000000	 95.985219  
931.000000	 95.871048  
930.000000	 95.740882  
929.000000	 95.578034  
928.000000	 95.350303  
927.000000	 95.023963  
926.000000	 94.571271  
925.000000	 93.971708  
924.000000	 93.219383  
923.000000	 92.336698  
922.000000	 91.381971  
921.000000	 90.451993  
920.000000	 89.684052  
919.000000	 89.232524  
918.000000	 89.200564  
917.000000	 89.575239  
916.000000	 90.234482  
915.000000	 91.019046  
914.000000	 91.802155  
913.000000	 92.512155  
912.000000	 93.121374  
911.000000	 93.633292  
910.000000	 94.070102  
909.000000	 94.450870  
908.000000	 94.777387  
907.000000	 95.046525  
906.000000	 95.267903  
905.000000	 95.456478  
904.000000	 95.614129  
903.000000	 95.733597  
902.000000	 95.817943  
901.000000	 95.883024  
900.000000	 95.942109  
899.000000	 95.998666  
898.000000	 96.051133  
897.000000	 96.095402  
896.000000	 96.126655  
895.000000	 96.149104  
894.000000	 96.178664  
893.000000	 96.224622  
892.000000	 96.273767  
891.000000	 96.304929  
890.000000	 96.315229  
889.000000	 96.319716  
888.000000	 96.329870  
887.000000	 96.346223  
886.000000	 96.367860  
885.000000	 96.393826  
884.000000	 96.417231  
883.000000	 96.433618  
882.000000	 96.454564  
881.000000	 96.497002  
880.000000	 96.558242  
879.000000	 96.617638  
878.000000	 96.665621  
877.000000	 96.714556  
876.000000	 96.774018  
875.000000	 96.829241  
874.000000	 96.853158  
873.000000	 96.831951  
872.000000	 96.773306  
871.000000	 96.696469  
870.000000	 96.617923  
869.000000	 96.541981  
868.000000	 96.463275  
867.000000	 96.377664  
866.000000	 96.283673  
865.000000	 96.168707  
864.000000	 96.003042  
863.000000	 95.756648  
862.000000	 95.413417  
861.000000	 94.954489  
860.000000	 94.329883  
859.000000	 93.456657  
858.000000	 92.243860  
857.000000	 90.621554  
856.000000	 88.575856  
855.000000	 86.194167  
854.000000	 83.683811  
853.000000	 81.333835  
852.000000	 79.449278  
851.000000	 78.287741  
850.000000	 77.991464  
849.000000	 78.531013  
848.000000	 79.705469  
847.000000	 81.215123  
846.000000	 82.776265  
845.000000	 84.211343  
844.000000	 85.459578  
843.000000	 86.528048  
842.000000	 87.446341  
841.000000	 88.249514  
840.000000	 88.970330  
839.000000	 89.628448  
838.000000	 90.225520  
837.000000	 90.752809  
836.000000	 91.205887  
835.000000	 91.596282  
834.000000	 91.947999  
833.000000	 92.276284  
832.000000	 92.570902  
831.000000	 92.810525  
830.000000	 92.996356  
829.000000	 93.160404  
828.000000	 93.334934  
827.000000	 93.523778  
826.000000	 93.709665  
825.000000	 93.880028  
824.000000	 94.037217  
823.000000	 94.191086  
822.000000	 94.348760  
821.000000	 94.505097  
820.000000	 94.640355  
819.000000	 94.736607  
818.000000	 94.799752  
817.000000	 94.855784  
816.000000	 94.921482  
815.000000	 94.988027  
814.000000	 95.038092  
813.000000	 95.069945  
812.000000	 95.098216  
811.000000	 95.138478  
810.000000	 95.197451  
809.000000	 95.272266  
808.000000	 95.353262  
807.000000	 95.431575  
806.000000	 95.507831  
805.000000	 95.588749  
804.000000	 95.673934  
803.000000	 95.753911  
802.000000	 95.822886  
801.000000	 95.882344  
800.000000	 95.926812  
799.000000	 95.938632  
798.000000	 95.908826  
797.000000	 95.857321  
796.000000	 95.821784  
795.000000	 95.826755  
794.000000	 95.866572  
793.000000	 95.913855  
792.000000	 95.940574  
791.000000	 95.936188  
790.000000	 95.912276  
789.000000	 95.888142  
788.000000	 95.868982  
787.000000	 95.840764  
786.000000	 95.787300  
785.000000	 95.705474  
784.000000	 95.598545  
783.000000	 95.459140  
782.000000	 95.263575  
781.000000	 94.978017  
780.000000	 94.564722  
779.000000	 93.989635  
778.000000	 93.239853  
777.000000	 92.342620  
776.000000	 91.362005  
775.000000	 90.361618  
774.000000	 89.359270  
773.000000	 88.327336  
772.000000	 87.259314  
771.000000	 86.244880  
770.000000	 85.469083  
769.000000	 85.123745  
768.000000	 85.306409  
767.000000	 85.978755  
766.000000	 86.994710  
765.000000	 88.166197  
764.000000	 89.325209  
763.000000	 90.360485  
762.000000	 91.228747  
761.000000	 91.940474  
760.000000	 92.526319  
759.000000	 93.010520  
758.000000	 93.410113  
757.000000	 93.745084  
756.000000	 94.035773  
755.000000	 94.290730  
754.000000	 94.505654  
753.000000	 94.678314  
752.000000	 94.822742  
751.000000	 94.966138  
750.000000	 95.128777  
749.000000	 95.304986  
748.000000	 95.466849  
747.000000	 95.591662  
746.000000	 95.685412  
745.000000	 95.774824  
744.000000	 95.878136  
743.000000	 95.990177  
742.000000	 96.095234  
741.000000	 96.185869  
740.000000	 96.265736  
739.000000	 96.340043  
738.000000	 96.407301  
737.000000	 96.458921  
736.000000	 96.487964  
735.000000	 96.502660  
734.000000	 96.528788  
733.000000	 96.589590  
732.000000	 96.680472  
731.000000	 96.769475  
730.000000	 96.826333  
729.000000	 96.848622  
728.000000	 96.861380  
727.000000	 96.896819  
726.000000	 96.971400  
725.000000	 97.072588  
724.000000	 97.164862  
723.000000	 97.216009  
722.000000	 97.222813  
721.000000	 97.211553  
720.000000	 97.211803  
719.000000	 97.227957  
718.000000	 97.239993  
717.000000	 97.230588  
716.000000	 97.203548  
715.000000	 97.175837  
714.000000	 97.154796  
713.000000	 97.127856  
712.000000	 97.081355  
711.000000	 97.025227  
710.000000	 96.986869  
709.000000	 96.979735  
708.000000	 96.990894  
707.000000	 97.003123  
706.000000	 97.012861  
705.000000	 97.018400  
704.000000	 97.007986  
703.000000	 96.976231  
702.000000	 96.941633  
701.000000	 96.928354  
700.000000	 96.935526  
699.000000	 96.943329  
698.000000	 96.944337  
697.000000	 96.949474  
696.000000	 96.965936  
695.000000	 96.989737  
694.000000	 97.023180  
693.000000	 97.077116  
692.000000	 97.145741  
691.000000	 97.198971  
690.000000	 97.213396  
689.000000	 97.202124  
688.000000	 97.202494  
687.000000	 97.237167  
686.000000	 97.295666  
685.000000	 97.349972  
684.000000	 97.381829  
683.000000	 97.396785  
682.000000	 97.410894  
681.000000	 97.422758  
680.000000	 97.410207  
679.000000	 97.367846  
678.000000	 97.334406  
677.000000	 97.358927  
676.000000	 97.441246  
675.000000	 97.530447  
674.000000	 97.581055  
673.000000	 97.590128  
672.000000	 97.574241  
671.000000	 97.532732  
670.000000	 97.448135  
669.000000	 97.322297  
668.000000	 97.202854  
667.000000	 97.136339  
666.000000	 97.138202  
665.000000	 97.162125  
664.000000	 97.149195  
663.000000	 97.076969  
662.000000	 96.948667  
661.000000	 96.780258  
660.000000	 96.581514  
659.000000	 96.347655  
658.000000	 96.056223  
657.000000	 95.664777  
656.000000	 95.128979  
655.000000	 94.432105  
654.000000	 93.575266  
653.000000	 92.466379  
652.000000	 91.174346  
651.000000	 89.613762  
650.000000	 87.835865  

