PE IR                   SPECTRUM    ASCII       PEDS        1.60        
  -1
~SP.SP
18/03/22
18:35:46.00
18/03/22
18:35:46.00
carrillo
vaso
650.000000
16









SPECTRUM 100,CPU32 MAIN 00.02.8200 12-DECEMBER-2006 10:00:00
MIR TGS
MIR
OPTKBR
78890
0.200000

4.000000
STRONG
RATIO
SPECTRUM
MAGNITUDE
UNIVERSAL ATR
DOUBLE

COMBINED


0


#HDR
-1
-1
#GR
CM-1
%T
0.00002384185791015625
0.0
4000.000000
-1.000000
3351
8
99.737512
22.418291
#DATA
4000.000000	99.694273 
3999.000000	99.698195 
3998.000000	99.702110 
3997.000000	99.706046 
3996.000000	99.706653 
3995.000000	99.704692 
3994.000000	99.702281 
3993.000000	99.701540 
3992.000000	99.703449 
3991.000000	99.707280 
3990.000000	99.710534 
3989.000000	99.710135 
3988.000000	99.704936 
3987.000000	99.697198 
3986.000000	99.690791 
3985.000000	99.687865 
3984.000000	99.687852 
3983.000000	99.689667 
3982.000000	99.693660 
3981.000000	99.700681 
3980.000000	99.709908 
3979.000000	99.718391 
3978.000000	99.722581 
3977.000000	99.720325 
3976.000000	99.712324 
3975.000000	99.702286 
3974.000000	99.695087 
3973.000000	99.693641 
3972.000000	99.696952 
3971.000000	99.701036 
3970.000000	99.701812 
3969.000000	99.698044 
3968.000000	99.692155 
3967.000000	99.688153 
3966.000000	99.688030 
3965.000000	99.689953 
3964.000000	99.690256 
3963.000000	99.687222 
3962.000000	99.682744 
3961.000000	99.680346 
3960.000000	99.682203 
3959.000000	99.687834 
3958.000000	99.694550 
3957.000000	99.699085 
3956.000000	99.699557 
3955.000000	99.696719 
3954.000000	99.693213 
3953.000000	99.691592 
3952.000000	99.693128 
3951.000000	99.697877 
3950.000000	99.704970 
3949.000000	99.712332 
3948.000000	99.717131 
3947.000000	99.717682 
3946.000000	99.714865 
3945.000000	99.711062 
3944.000000	99.707877 
3943.000000	99.705475 
3942.000000	99.703868 
3941.000000	99.703879 
3940.000000	99.706378 
3939.000000	99.710854 
3938.000000	99.715294 
3937.000000	99.717953 
3936.000000	99.718696 
3935.000000	99.718535 
3934.000000	99.718181 
3933.000000	99.717645 
3932.000000	99.717162 
3931.000000	99.717217 
3930.000000	99.717445 
3929.000000	99.716292 
3928.000000	99.712971 
3927.000000	99.709611 
3926.000000	99.709905 
3925.000000	99.715189 
3924.000000	99.722945 
3923.000000	99.729674 
3922.000000	99.733631 
3921.000000	99.734906 
3920.000000	99.734971 
3919.000000	99.735927 
3918.000000	99.737512 
3917.000000	99.735424 
3916.000000	99.725335 
3915.000000	99.709169 
3914.000000	99.694771 
3913.000000	99.688909 
3912.000000	99.691525 
3911.000000	99.697117 
3910.000000	99.699703 
3909.000000	99.697387 
3908.000000	99.692587 
3907.000000	99.689618 
3906.000000	99.691260 
3905.000000	99.696603 
3904.000000	99.701992 
3903.000000	99.704589 
3902.000000	99.704473 
3901.000000	99.702466 
3900.000000	99.698186 
3899.000000	99.692242 
3898.000000	99.688764 
3897.000000	99.692545 
3896.000000	99.703839 
3895.000000	99.717730 
3894.000000	99.728102 
3893.000000	99.731439 
3892.000000	99.726753 
3891.000000	99.714896 
3890.000000	99.699002 
3889.000000	99.685819 
3888.000000	99.681274 
3887.000000	99.685006 
3886.000000	99.691404 
3885.000000	99.694629 
3884.000000	99.694399 
3883.000000	99.695878 
3882.000000	99.701140 
3881.000000	99.706359 
3880.000000	99.707266 
3879.000000	99.703738 
3878.000000	99.700726 
3877.000000	99.703137 
3876.000000	99.709567 
3875.000000	99.714067 
3874.000000	99.712784 
3873.000000	99.708666 
3872.000000	99.708867 
3871.000000	99.715220 
3870.000000	99.720192 
3869.000000	99.716092 
3868.000000	99.706314 
3867.000000	99.700932 
3866.000000	99.701611 
3865.000000	99.701363 
3864.000000	99.696425 
3863.000000	99.690313 
3862.000000	99.687768 
3861.000000	99.689643 
3860.000000	99.693614 
3859.000000	99.697706 
3858.000000	99.700137 
3857.000000	99.699866 
3856.000000	99.697843 
3855.000000	99.697526 
3854.000000	99.700143 
3853.000000	99.699152 
3852.000000	99.690163 
3851.000000	99.682359 
3850.000000	99.682930 
3849.000000	99.686277 
3848.000000	99.686863 
3847.000000	99.686405 
3846.000000	99.688515 
3845.000000	99.694225 
3844.000000	99.701640 
3843.000000	99.707510 
3842.000000	99.709177 
3841.000000	99.706860 
3840.000000	99.702791 
3839.000000	99.700018 
3838.000000	99.700552 
3837.000000	99.703595 
3836.000000	99.706042 
3835.000000	99.705689 
3834.000000	99.702337 
3833.000000	99.696916 
3832.000000	99.689845 
3831.000000	99.680424 
3830.000000	99.669043 
3829.000000	99.658815 
3828.000000	99.653332 
3827.000000	99.652907 
3826.000000	99.653442 
3825.000000	99.651469 
3824.000000	99.648665 
3823.000000	99.649804 
3822.000000	99.656823 
3821.000000	99.664597 
3820.000000	99.665659 
3819.000000	99.662546 
3818.000000	99.663901 
3817.000000	99.670803 
3816.000000	99.676807 
3815.000000	99.675011 
3814.000000	99.666576 
3813.000000	99.659223 
3812.000000	99.656166 
3811.000000	99.656514 
3810.000000	99.661271 
3809.000000	99.670131 
3808.000000	99.676699 
3807.000000	99.672070 
3806.000000	99.655073 
3805.000000	99.636900 
3804.000000	99.631257 
3803.000000	99.640995 
3802.000000	99.657154 
3801.000000	99.667570 
3800.000000	99.668571 
3799.000000	99.669095 
3798.000000	99.675559 
3797.000000	99.683300 
3796.000000	99.686469 
3795.000000	99.685090 
3794.000000	99.683433 
3793.000000	99.684137 
3792.000000	99.685887 
3791.000000	99.686567 
3790.000000	99.685701 
3789.000000	99.683213 
3788.000000	99.678811 
3787.000000	99.673027 
3786.000000	99.667531 
3785.000000	99.663401 
3784.000000	99.660095 
3783.000000	99.656750 
3782.000000	99.653259 
3781.000000	99.649642 
3780.000000	99.646107 
3779.000000	99.644094 
3778.000000	99.645359 
3777.000000	99.650097 
3776.000000	99.655164 
3775.000000	99.655794 
3774.000000	99.650484 
3773.000000	99.643325 
3772.000000	99.639525 
3771.000000	99.639370 
3770.000000	99.638551 
3769.000000	99.635084 
3768.000000	99.632791 
3767.000000	99.635599 
3766.000000	99.640889 
3765.000000	99.642439 
3764.000000	99.638769 
3763.000000	99.635174 
3762.000000	99.636577 
3761.000000	99.641401 
3760.000000	99.644647 
3759.000000	99.644679 
3758.000000	99.643620 
3757.000000	99.643512 
3756.000000	99.644624 
3755.000000	99.646539 
3754.000000	99.647129 
3753.000000	99.642558 
3752.000000	99.631936 
3751.000000	99.620333 
3750.000000	99.613353 
3749.000000	99.611146 
3748.000000	99.612935 
3747.000000	99.620762 
3746.000000	99.632991 
3745.000000	99.641010 
3744.000000	99.634979 
3743.000000	99.615384 
3742.000000	99.597770 
3741.000000	99.590408 
3740.000000	99.583111 
3739.000000	99.568714 
3738.000000	99.552526 
3737.000000	99.543674 
3736.000000	99.546569 
3735.000000	99.558929 
3734.000000	99.574619 
3733.000000	99.585658 
3732.000000	99.584875 
3731.000000	99.571976 
3730.000000	99.555747 
3729.000000	99.546505 
3728.000000	99.547624 
3727.000000	99.555248 
3726.000000	99.563661 
3725.000000	99.570361 
3724.000000	99.576579 
3723.000000	99.582630 
3722.000000	99.586643 
3721.000000	99.587853 
3720.000000	99.587854 
3719.000000	99.588217 
3718.000000	99.587607 
3717.000000	99.583128 
3716.000000	99.574601 
3715.000000	99.565190 
3714.000000	99.557392 
3713.000000	99.551743 
3712.000000	99.548690 
3711.000000	99.549326 
3710.000000	99.553320 
3709.000000	99.558532 
3708.000000	99.562235 
3707.000000	99.562831 
3706.000000	99.561242 
3705.000000	99.560051 
3704.000000	99.561674 
3703.000000	99.566124 
3702.000000	99.570641 
3701.000000	99.571265 
3700.000000	99.566288 
3699.000000	99.557607 
3698.000000	99.548086 
3697.000000	99.538387 
3696.000000	99.527885 
3695.000000	99.517173 
3694.000000	99.508068 
3693.000000	99.502617 
3692.000000	99.503058 
3691.000000	99.511617 
3690.000000	99.525944 
3689.000000	99.537611 
3688.000000	99.538937 
3687.000000	99.532066 
3686.000000	99.526791 
3685.000000	99.528077 
3684.000000	99.531328 
3683.000000	99.530158 
3682.000000	99.523859 
3681.000000	99.515803 
3680.000000	99.508702 
3679.000000	99.503578 
3678.000000	99.502729 
3677.000000	99.507436 
3676.000000	99.512761 
3675.000000	99.509614 
3674.000000	99.497606 
3673.000000	99.488626 
3672.000000	99.488858 
3671.000000	99.491073 
3670.000000	99.487179 
3669.000000	99.477387 
3668.000000	99.469473 
3667.000000	99.469799 
3666.000000	99.475952 
3665.000000	99.481609 
3664.000000	99.482658 
3663.000000	99.477865 
3662.000000	99.467468 
3661.000000	99.453042 
3660.000000	99.438205 
3659.000000	99.427644 
3658.000000	99.423838 
3657.000000	99.423279 
3656.000000	99.418144 
3655.000000	99.404268 
3654.000000	99.386694 
3653.000000	99.372716 
3652.000000	99.363458 
3651.000000	99.354837 
3650.000000	99.342853 
3649.000000	99.328153 
3648.000000	99.316236 
3647.000000	99.310495 
3646.000000	99.308609 
3645.000000	99.306413 
3644.000000	99.300640 
3643.000000	99.290064 
3642.000000	99.276285 
3641.000000	99.263186 
3640.000000	99.254198 
3639.000000	99.249501 
3638.000000	99.246049 
3637.000000	99.241108 
3636.000000	99.235166 
3635.000000	99.230309 
3634.000000	99.227108 
3633.000000	99.224184 
3632.000000	99.219962 
3631.000000	99.212861 
3630.000000	99.202593 
3629.000000	99.191662 
3628.000000	99.181727 
3627.000000	99.173631 
3626.000000	99.168573 
3625.000000	99.164473 
3624.000000	99.159870 
3623.000000	99.158428 
3622.000000	99.163623 
3621.000000	99.172725 
3620.000000	99.178054 
3619.000000	99.173870 
3618.000000	99.160811 
3617.000000	99.143845 
3616.000000	99.127874 
3615.000000	99.115370 
3614.000000	99.106841 
3613.000000	99.101464 
3612.000000	99.097207 
3611.000000	99.091577 
3610.000000	99.082784 
3609.000000	99.071190 
3608.000000	99.059175 
3607.000000	99.048873 
3606.000000	99.040935 
3605.000000	99.034959 
3604.000000	99.030465 
3603.000000	99.026788 
3602.000000	99.022441 
3601.000000	99.014836 
3600.000000	99.001949 
3599.000000	98.984367 
3598.000000	98.965152 
3597.000000	98.948019 
3596.000000	98.936096 
3595.000000	98.930551 
3594.000000	98.930002 
3593.000000	98.932000 
3592.000000	98.934727 
3591.000000	98.937017 
3590.000000	98.937675 
3589.000000	98.936096 
3588.000000	98.932713 
3587.000000	98.928286 
3586.000000	98.923284 
3585.000000	98.918011 
3584.000000	98.912612 
3583.000000	98.907120 
3582.000000	98.902563 
3581.000000	98.900649 
3580.000000	98.901999 
3579.000000	98.904603 
3578.000000	98.904528 
3577.000000	98.898579 
3576.000000	98.886828 
3575.000000	98.873159 
3574.000000	98.862928 
3573.000000	98.859527 
3572.000000	98.861639 
3571.000000	98.863933 
3570.000000	98.860813 
3569.000000	98.850943 
3568.000000	98.838372 
3567.000000	98.828485 
3566.000000	98.823004 
3565.000000	98.820679 
3564.000000	98.820318 
3563.000000	98.820787 
3562.000000	98.819747 
3561.000000	98.814628 
3560.000000	98.804881 
3559.000000	98.792462 
3558.000000	98.779611 
3557.000000	98.766959 
3556.000000	98.753980 
3555.000000	98.740735 
3554.000000	98.728338 
3553.000000	98.718220 
3552.000000	98.711318 
3551.000000	98.707555 
3550.000000	98.705254 
3549.000000	98.701229 
3548.000000	98.692896 
3547.000000	98.681342 
3546.000000	98.671043 
3545.000000	98.665117 
3544.000000	98.662062 
3543.000000	98.658255 
3542.000000	98.652162 
3541.000000	98.644743 
3540.000000	98.636651 
3539.000000	98.626978 
3538.000000	98.615032 
3537.000000	98.601933 
3536.000000	98.589376 
3535.000000	98.577669 
3534.000000	98.566218 
3533.000000	98.555172 
3532.000000	98.545509 
3531.000000	98.537862 
3530.000000	98.532253 
3529.000000	98.528427 
3528.000000	98.525334 
3527.000000	98.520559 
3526.000000	98.511799 
3525.000000	98.499141 
3524.000000	98.485108 
3523.000000	98.472419 
3522.000000	98.462331 
3521.000000	98.454773 
3520.000000	98.448467 
3519.000000	98.440605 
3518.000000	98.428223 
3517.000000	98.411381 
3516.000000	98.394164 
3515.000000	98.381005 
3514.000000	98.372190 
3513.000000	98.363881 
3512.000000	98.352635 
3511.000000	98.339317 
3510.000000	98.328463 
3509.000000	98.323635 
3508.000000	98.323686 
3507.000000	98.323902 
3506.000000	98.320608 
3505.000000	98.314222 
3504.000000	98.308094 
3503.000000	98.304563 
3502.000000	98.302589 
3501.000000	98.299224 
3500.000000	98.292644 
3499.000000	98.283663 
3498.000000	98.274978 
3497.000000	98.268905 
3496.000000	98.265233 
3495.000000	98.261619 
3494.000000	98.256684 
3493.000000	98.252231 
3492.000000	98.251255 
3491.000000	98.253928 
3490.000000	98.256687 
3489.000000	98.255469 
3488.000000	98.248958 
3487.000000	98.238660 
3486.000000	98.227107 
3485.000000	98.216483 
3484.000000	98.207948 
3483.000000	98.201299 
3482.000000	98.195592 
3481.000000	98.190500 
3480.000000	98.186713 
3479.000000	98.184858 
3478.000000	98.184645 
3477.000000	98.185216 
3476.000000	98.185700 
3475.000000	98.185384 
3474.000000	98.183982 
3473.000000	98.181867 
3472.000000	98.179500 
3471.000000	98.176629 
3470.000000	98.172601 
3469.000000	98.167200 
3468.000000	98.160224 
3467.000000	98.150698 
3466.000000	98.138167 
3465.000000	98.125022 
3464.000000	98.115802 
3463.000000	98.113060 
3462.000000	98.114531 
3461.000000	98.115163 
3460.000000	98.111369 
3459.000000	98.102960 
3458.000000	98.091989 
3457.000000	98.080844 
3456.000000	98.071270 
3455.000000	98.064392 
3454.000000	98.061167 
3453.000000	98.062020 
3452.000000	98.065524 
3451.000000	98.068044 
3450.000000	98.065916 
3449.000000	98.058321 
3448.000000	98.047715 
3447.000000	98.037573 
3446.000000	98.029969 
3445.000000	98.024778 
3444.000000	98.020124 
3443.000000	98.013790 
3442.000000	98.005366 
3441.000000	97.996881 
3440.000000	97.990282 
3439.000000	97.984952 
3438.000000	97.979199 
3437.000000	97.973602 
3436.000000	97.970617 
3435.000000	97.970693 
3434.000000	97.971241 
3433.000000	97.970226 
3432.000000	97.968706 
3431.000000	97.968203 
3430.000000	97.967051 
3429.000000	97.961342 
3428.000000	97.949270 
3427.000000	97.933345 
3426.000000	97.918255 
3425.000000	97.907104 
3424.000000	97.899355 
3423.000000	97.891774 
3422.000000	97.881621 
3421.000000	97.869250 
3420.000000	97.857257 
3419.000000	97.847244 
3418.000000	97.838447 
3417.000000	97.829637 
3416.000000	97.820974 
3415.000000	97.813143 
3414.000000	97.805553 
3413.000000	97.796322 
3412.000000	97.783872 
3411.000000	97.768346 
3410.000000	97.752204 
3409.000000	97.739625 
3408.000000	97.734064 
3407.000000	97.735222 
3406.000000	97.738805 
3405.000000	97.739968 
3404.000000	97.736705 
3403.000000	97.729729 
3402.000000	97.720122 
3401.000000	97.708249 
3400.000000	97.694613 
3399.000000	97.680748 
3398.000000	97.668952 
3397.000000	97.661097 
3396.000000	97.657127 
3395.000000	97.654520 
3394.000000	97.649929 
3393.000000	97.641776 
3392.000000	97.630885 
3391.000000	97.618541 
3390.000000	97.604903 
3389.000000	97.589680 
3388.000000	97.573288 
3387.000000	97.556615 
3386.000000	97.540333 
3385.000000	97.524895 
3384.000000	97.510361 
3383.000000	97.495631 
3382.000000	97.478824 
3381.000000	97.459208 
3380.000000	97.437895 
3379.000000	97.415714 
3378.000000	97.391283 
3377.000000	97.362590 
3376.000000	97.330266 
3375.000000	97.298093 
3374.000000	97.269992 
3373.000000	97.246654 
3372.000000	97.224563 
3371.000000	97.197972 
3370.000000	97.162880 
3369.000000	97.120456 
3368.000000	97.076349 
3367.000000	97.035628 
3366.000000	96.998293 
3365.000000	96.960189 
3364.000000	96.917891 
3363.000000	96.871758 
3362.000000	96.824564 
3361.000000	96.778569 
3360.000000	96.734299 
3359.000000	96.690898 
3358.000000	96.646423 
3357.000000	96.598168 
3356.000000	96.544027 
3355.000000	96.484118 
3354.000000	96.420394 
3353.000000	96.353979 
3352.000000	96.283430 
3351.000000	96.206578 
3350.000000	96.123926 
3349.000000	96.038920 
3348.000000	95.954350 
3347.000000	95.869540 
3346.000000	95.781872 
3345.000000	95.689914 
3344.000000	95.593641 
3343.000000	95.492239 
3342.000000	95.383586 
3341.000000	95.266419 
3340.000000	95.142049 
3339.000000	95.013294 
3338.000000	94.881813 
3337.000000	94.746215 
3336.000000	94.602470 
3335.000000	94.446766 
3334.000000	94.278756 
3333.000000	94.101746 
3332.000000	93.919508 
3331.000000	93.733713 
3330.000000	93.544632 
3329.000000	93.352114 
3328.000000	93.153629 
3327.000000	92.942445 
3326.000000	92.710500 
3325.000000	92.453297 
3324.000000	92.170341 
3323.000000	91.861081 
3322.000000	91.522414 
3321.000000	91.149956 
3320.000000	90.739387 
3319.000000	90.286228 
3318.000000	89.786121 
3317.000000	89.234946 
3316.000000	88.625609 
3315.000000	87.943546 
3314.000000	87.167359 
3313.000000	86.274497 
3312.000000	85.244209 
3311.000000	84.055120 
3310.000000	82.684729 
3309.000000	81.115903 
3308.000000	79.344898 
3307.000000	77.385139 
3306.000000	75.270374 
3305.000000	73.061678 
3304.000000	70.852919 
3303.000000	68.765747 
3302.000000	66.933190 
3301.000000	65.476699 
3300.000000	64.480664 
3299.000000	63.970705 
3298.000000	63.905348 
3297.000000	64.185795 
3296.000000	64.678799 
3295.000000	65.243469 
3294.000000	65.754071 
3293.000000	66.113954 
3292.000000	66.259571 
3291.000000	66.158559 
3290.000000	65.807286 
3289.000000	65.229540 
3288.000000	64.474663 
3287.000000	63.614111 
3286.000000	62.736694 
3285.000000	61.940338 
3284.000000	61.317763 
3283.000000	60.939472 
3282.000000	60.842630 
3281.000000	61.029594 
3280.000000	61.472652 
3279.000000	62.122826 
3278.000000	62.923113 
3277.000000	63.822211 
3276.000000	64.781937 
3275.000000	65.777444 
3274.000000	66.794634 
3273.000000	67.826455 
3272.000000	68.867396 
3271.000000	69.909017 
3270.000000	70.940570 
3269.000000	71.952888 
3268.000000	72.939866 
3267.000000	73.896797 
3266.000000	74.819808 
3265.000000	75.707774 
3264.000000	76.563062 
3263.000000	77.388843 
3262.000000	78.185701 
3261.000000	78.951399 
3260.000000	79.683900 
3259.000000	80.384360 
3258.000000	81.056971 
3257.000000	81.705684 
3256.000000	82.331264 
3255.000000	82.931777 
3254.000000	83.505048 
3253.000000	84.049171 
3252.000000	84.560905 
3251.000000	85.035640 
3250.000000	85.469850 
3249.000000	85.862099 
3248.000000	86.210607 
3247.000000	86.511476 
3246.000000	86.761448 
3245.000000	86.962701 
3244.000000	87.124628 
3243.000000	87.261838 
3242.000000	87.391105 
3241.000000	87.528267 
3240.000000	87.684954 
3239.000000	87.867025 
3238.000000	88.075881 
3237.000000	88.309801 
3236.000000	88.562993 
3235.000000	88.825553 
3234.000000	89.087733 
3233.000000	89.345211 
3232.000000	89.599445 
3231.000000	89.853104 
3230.000000	90.105863 
3229.000000	90.353882 
3228.000000	90.592099 
3227.000000	90.817425 
3226.000000	91.030703 
3225.000000	91.235271 
3224.000000	91.433044 
3223.000000	91.622641 
3222.000000	91.801699 
3221.000000	91.969756 
3220.000000	92.128115 
3219.000000	92.278544 
3218.000000	92.423559 
3217.000000	92.566252 
3216.000000	92.707436 
3215.000000	92.843973 
3214.000000	92.972469 
3213.000000	93.094301 
3212.000000	93.214546 
3211.000000	93.336028 
3210.000000	93.456760 
3209.000000	93.573550 
3208.000000	93.685685 
3207.000000	93.794089 
3206.000000	93.898829 
3205.000000	93.999130 
3204.000000	94.095018 
3203.000000	94.187500 
3202.000000	94.277119 
3201.000000	94.363060 
3200.000000	94.444001 
3199.000000	94.519998 
3198.000000	94.593460 
3197.000000	94.667733 
3196.000000	94.744289 
3195.000000	94.821710 
3194.000000	94.897443 
3193.000000	94.969465 
3192.000000	95.035719 
3191.000000	95.093346 
3190.000000	95.139973 
3189.000000	95.175112 
3188.000000	95.199061 
3187.000000	95.210984 
3186.000000	95.209232 
3185.000000	95.192920 
3184.000000	95.161999 
3183.000000	95.116702 
3182.000000	95.058909 
3181.000000	94.993691 
3180.000000	94.927431 
3179.000000	94.863791 
3178.000000	94.802621 
3177.000000	94.743128 
3176.000000	94.687265 
3175.000000	94.640077 
3174.000000	94.607672 
3173.000000	94.594677 
3172.000000	94.602701 
3171.000000	94.631141 
3170.000000	94.679622 
3169.000000	94.748553 
3168.000000	94.836530 
3167.000000	94.938656 
3166.000000	95.049063 
3165.000000	95.164283 
3164.000000	95.282570 
3163.000000	95.401023 
3162.000000	95.515715 
3161.000000	95.624620 
3160.000000	95.728497 
3159.000000	95.828723 
3158.000000	95.925782 
3157.000000	96.019842 
3156.000000	96.110838 
3155.000000	96.197231 
3154.000000	96.275952 
3153.000000	96.344402 
3152.000000	96.402100 
3151.000000	96.450481 
3150.000000	96.492143 
3149.000000	96.530312 
3148.000000	96.567530 
3147.000000	96.603716 
3146.000000	96.635822 
3145.000000	96.660194 
3144.000000	96.675820 
3143.000000	96.685625 
3142.000000	96.694318 
3141.000000	96.704023 
3140.000000	96.711760 
3139.000000	96.712241 
3138.000000	96.703635 
3137.000000	96.689503 
3136.000000	96.674520 
3135.000000	96.659906 
3134.000000	96.644185 
3133.000000	96.626495 
3132.000000	96.606856 
3131.000000	96.584324 
3130.000000	96.557796 
3129.000000	96.528863 
3128.000000	96.501697 
3127.000000	96.479345 
3126.000000	96.461143 
3125.000000	96.443809 
3124.000000	96.423858 
3123.000000	96.398866 
3122.000000	96.367483 
3121.000000	96.328755 
3120.000000	96.281532 
3119.000000	96.225179 
3118.000000	96.161014 
3117.000000	96.091578 
3116.000000	96.017348 
3115.000000	95.935138 
3114.000000	95.840274 
3113.000000	95.728114 
3112.000000	95.591089 
3111.000000	95.414775 
3110.000000	95.178202 
3109.000000	94.858876 
3108.000000	94.443172 
3107.000000	93.945307 
3106.000000	93.427619 
3105.000000	92.997866 
3104.000000	92.767002 
3103.000000	92.788550 
3102.000000	93.026070 
3101.000000	93.375388 
3100.000000	93.722624 
3099.000000	93.993319 
3098.000000	94.164648 
3097.000000	94.247663 
3096.000000	94.263557 
3095.000000	94.230648 
3094.000000	94.163006 
3093.000000	94.072021 
3092.000000	93.964917 
3091.000000	93.843020 
3090.000000	93.704715 
3089.000000	93.550776 
3088.000000	93.385256 
3087.000000	93.211420 
3086.000000	93.029004 
3085.000000	92.836112 
3084.000000	92.632107 
3083.000000	92.418147 
3082.000000	92.196692 
3081.000000	91.971628 
3080.000000	91.748038 
3079.000000	91.531207 
3078.000000	91.326414 
3077.000000	91.139650 
3076.000000	90.977593 
3075.000000	90.846762 
3074.000000	90.753060 
3073.000000	90.701219 
3072.000000	90.693336 
3071.000000	90.728501 
3070.000000	90.804994 
3069.000000	90.922066 
3068.000000	91.077966 
3067.000000	91.266865 
3066.000000	91.479957 
3065.000000	91.710203 
3064.000000	91.955185 
3063.000000	92.215458 
3062.000000	92.491180 
3061.000000	92.780025 
3060.000000	93.076951 
3059.000000	93.375634 
3058.000000	93.670683 
3057.000000	93.958478 
3056.000000	94.236019 
3055.000000	94.500353 
3054.000000	94.750165 
3053.000000	94.986752 
3052.000000	95.211904 
3051.000000	95.425472 
3050.000000	95.626303 
3049.000000	95.814665 
3048.000000	95.991833 
3047.000000	96.157570 
3046.000000	96.309871 
3045.000000	96.447176 
3044.000000	96.569087 
3043.000000	96.674674 
3042.000000	96.761795 
3041.000000	96.828922 
3040.000000	96.876793 
3039.000000	96.907543 
3038.000000	96.922176 
3037.000000	96.918027 
3036.000000	96.888034 
3035.000000	96.824285 
3034.000000	96.726012 
3033.000000	96.606190 
3032.000000	96.489627 
3031.000000	96.403182 
3030.000000	96.365994 
3029.000000	96.385643 
3028.000000	96.458878 
3027.000000	96.573408 
3026.000000	96.711004 
3025.000000	96.852632 
3024.000000	96.983276 
3023.000000	97.093929 
3022.000000	97.181005 
3021.000000	97.245080 
3020.000000	97.289708 
3019.000000	97.319974 
3018.000000	97.340673 
3017.000000	97.354378 
3016.000000	97.360636 
3015.000000	97.357711 
3014.000000	97.345628 
3013.000000	97.326693 
3012.000000	97.302470 
3011.000000	97.271451 
3010.000000	97.230962 
3009.000000	97.180497 
3008.000000	97.121718 
3007.000000	97.055603 
3006.000000	96.980625 
3005.000000	96.893027 
3004.000000	96.787736 
3003.000000	96.660073 
3002.000000	96.508439 
3001.000000	96.335092 
3000.000000	96.143054 
2999.000000	95.933257 
2998.000000	95.706949 
2997.000000	95.470357 
2996.000000	95.233908 
2995.000000	95.004982 
2994.000000	94.781470 
2993.000000	94.550727 
2992.000000	94.290720 
2991.000000	93.969866 
2990.000000	93.547698 
2989.000000	92.980889 
2988.000000	92.233739 
2987.000000	91.287477 
2986.000000	90.145565 
2985.000000	88.837268 
2984.000000	87.424386 
2983.000000	86.007044 
2982.000000	84.714495 
2981.000000	83.666369 
2980.000000	82.910332 
2979.000000	82.370806 
2978.000000	81.849086 
2977.000000	81.087792 
2976.000000	79.873201 
2975.000000	78.131768 
2974.000000	75.977012 
2973.000000	73.686191 
2972.000000	71.617179 
2971.000000	70.104613 
2970.000000	69.373301 
2969.000000	69.486050 
2968.000000	70.335824 
2967.000000	71.689805 
2966.000000	73.281449 
2965.000000	74.915342 
2964.000000	76.531960 
2963.000000	78.191780 
2962.000000	79.986826 
2961.000000	81.939809 
2960.000000	83.962409 
2959.000000	85.897762 
2958.000000	87.604545 
2957.000000	89.014708 
2956.000000	90.133244 
2955.000000	91.002829 
2954.000000	91.671424 
2953.000000	92.178906 
2952.000000	92.555070 
2951.000000	92.820105 
2950.000000	92.986524 
2949.000000	93.061553 
2948.000000	93.048131 
2947.000000	92.945849 
2946.000000	92.753893 
2945.000000	92.474355 
2944.000000	92.112979 
2943.000000	91.679049 
2942.000000	91.186488 
2941.000000	90.653661 
2940.000000	90.099608 
2939.000000	89.540420 
2938.000000	88.991107 
2937.000000	88.470567 
2936.000000	88.004968 
2935.000000	87.628942 
2934.000000	87.384411 
2933.000000	87.313098 
2932.000000	87.441411 
2931.000000	87.767390 
2930.000000	88.259374 
2929.000000	88.864393 
2928.000000	89.520015 
2927.000000	90.167242 
2926.000000	90.762748 
2925.000000	91.284982 
2924.000000	91.729680 
2923.000000	92.101115 
2922.000000	92.407446 
2921.000000	92.659575 
2920.000000	92.869411 
2919.000000	93.048440 
2918.000000	93.209350 
2917.000000	93.366662 
2916.000000	93.531166 
2915.000000	93.702928 
2914.000000	93.871935 
2913.000000	94.026220 
2912.000000	94.158951 
2911.000000	94.269594 
2910.000000	94.361813 
2909.000000	94.440910 
2908.000000	94.511064 
2907.000000	94.573848 
2906.000000	94.629687 
2905.000000	94.680150 
2904.000000	94.727714 
2903.000000	94.773931 
2902.000000	94.818876 
2901.000000	94.861483 
2900.000000	94.899456 
2899.000000	94.930318 
2898.000000	94.954200 
2897.000000	94.974189 
2896.000000	94.992013 
2895.000000	95.004574 
2894.000000	95.006538 
2893.000000	94.994748 
2892.000000	94.967536 
2891.000000	94.920983 
2890.000000	94.848684 
2889.000000	94.744576 
2888.000000	94.603488 
2887.000000	94.419800 
2886.000000	94.188432 
2885.000000	93.907542 
2884.000000	93.578891 
2883.000000	93.207726 
2882.000000	92.806003 
2881.000000	92.395567 
2880.000000	92.005285 
2879.000000	91.664209 
2878.000000	91.398449 
2877.000000	91.230585 
2876.000000	91.175598 
2875.000000	91.235036 
2874.000000	91.397539 
2873.000000	91.646342 
2872.000000	91.964593 
2871.000000	92.334710 
2870.000000	92.736878 
2869.000000	93.151327 
2868.000000	93.561632 
2867.000000	93.955038 
2866.000000	94.321425 
2865.000000	94.653713 
2864.000000	94.949481 
2863.000000	95.211133 
2862.000000	95.443268 
2861.000000	95.648609 
2860.000000	95.825630 
2859.000000	95.971052 
2858.000000	96.085279 
2857.000000	96.174163 
2856.000000	96.244483 
2855.000000	96.299434 
2854.000000	96.340508 
2853.000000	96.372653 
2852.000000	96.405790 
2851.000000	96.452398 
2850.000000	96.525086 
2849.000000	96.633428 
2848.000000	96.777933 
2847.000000	96.946297 
2846.000000	97.118726 
2845.000000	97.278745 
2844.000000	97.419023 
2843.000000	97.539099 
2842.000000	97.641597 
2841.000000	97.730975 
2840.000000	97.811987 
2839.000000	97.886723 
2838.000000	97.953924 
2837.000000	98.011615 
2836.000000	98.059102 
2835.000000	98.096479 
2834.000000	98.124271 
2833.000000	98.144090 
2832.000000	98.157958 
2831.000000	98.166563 
2830.000000	98.169595 
2829.000000	98.167782 
2828.000000	98.162784 
2827.000000	98.155242 
2826.000000	98.145206 
2825.000000	98.134663 
2824.000000	98.127144 
2823.000000	98.123988 
2822.000000	98.122928 
2821.000000	98.121156 
2820.000000	98.118104 
2819.000000	98.114760 
2818.000000	98.112296 
2817.000000	98.112156 
2816.000000	98.115335 
2815.000000	98.120139 
2814.000000	98.122122 
2813.000000	98.117600 
2812.000000	98.106354 
2811.000000	98.089923 
2810.000000	98.068288 
2809.000000	98.039248 
2808.000000	98.000512 
2807.000000	97.951812 
2806.000000	97.895463 
2805.000000	97.835207 
2804.000000	97.773889 
2803.000000	97.712099 
2802.000000	97.649540 
2801.000000	97.587367 
2800.000000	97.528209 
2799.000000	97.474125 
2798.000000	97.425726 
2797.000000	97.383259 
2796.000000	97.347443 
2795.000000	97.319190 
2794.000000	97.299346 
2793.000000	97.288499 
2792.000000	97.286259 
2791.000000	97.291340 
2790.000000	97.303548 
2789.000000	97.325085 
2788.000000	97.358310 
2787.000000	97.402407 
2786.000000	97.453696 
2785.000000	97.509031 
2784.000000	97.567482 
2783.000000	97.628821 
2782.000000	97.692087 
2781.000000	97.756048 
2780.000000	97.819874 
2779.000000	97.883082 
2778.000000	97.945765 
2777.000000	98.008963 
2776.000000	98.073715 
2775.000000	98.139607 
2774.000000	98.205103 
2773.000000	98.269213 
2772.000000	98.331671 
2771.000000	98.391314 
2770.000000	98.445520 
2769.000000	98.492090 
2768.000000	98.531365 
2767.000000	98.566120 
2766.000000	98.599406 
2765.000000	98.632466 
2764.000000	98.664787 
2763.000000	98.696184 
2762.000000	98.728179 
2761.000000	98.762332 
2760.000000	98.797692 
2759.000000	98.831528 
2758.000000	98.862506 
2757.000000	98.891167 
2756.000000	98.917187 
2755.000000	98.938920 
2754.000000	98.956772 
2753.000000	98.974142 
2752.000000	98.992864 
2751.000000	99.009965 
2750.000000	99.021505 
2749.000000	99.027837 
2748.000000	99.032193 
2747.000000	99.035263 
2746.000000	99.034164 
2745.000000	99.026260 
2744.000000	99.011406 
2743.000000	98.990459 
2742.000000	98.963594 
2741.000000	98.929996 
2740.000000	98.888024 
2739.000000	98.836831 
2738.000000	98.779829 
2737.000000	98.725658 
2736.000000	98.683497 
2735.000000	98.657809 
2734.000000	98.648557 
2733.000000	98.654197 
2732.000000	98.671491 
2731.000000	98.693933 
2730.000000	98.714137 
2729.000000	98.728059 
2728.000000	98.734723 
2727.000000	98.732674 
2726.000000	98.719715 
2725.000000	98.695814 
2724.000000	98.663329 
2723.000000	98.624374 
2722.000000	98.580983 
2721.000000	98.538000 
2720.000000	98.502508 
2719.000000	98.478884 
2718.000000	98.466101 
2717.000000	98.460497 
2716.000000	98.459502 
2715.000000	98.462354 
2714.000000	98.468964 
2713.000000	98.479036 
2712.000000	98.491646 
2711.000000	98.505870 
2710.000000	98.522702 
2709.000000	98.545431 
2708.000000	98.576480 
2707.000000	98.614328 
2706.000000	98.654963 
2705.000000	98.695538 
2704.000000	98.735075 
2703.000000	98.772919 
2702.000000	98.808912 
2701.000000	98.844181 
2700.000000	98.878886 
2699.000000	98.909537 
2698.000000	98.931388 
2697.000000	98.943672 
2696.000000	98.949997 
2695.000000	98.953276 
2694.000000	98.952723 
2693.000000	98.946466 
2692.000000	98.934944 
2691.000000	98.920892 
2690.000000	98.907805 
2689.000000	98.899423 
2688.000000	98.899493 
2687.000000	98.910660 
2686.000000	98.933059 
2685.000000	98.963364 
2684.000000	98.995319 
2683.000000	99.023293 
2682.000000	99.046982 
2681.000000	99.071369 
2680.000000	99.100494 
2679.000000	99.132460 
2678.000000	99.162126 
2677.000000	99.186876 
2676.000000	99.207368 
2675.000000	99.224235 
2674.000000	99.237337 
2673.000000	99.247619 
2672.000000	99.256571 
2671.000000	99.263904 
2670.000000	99.268186 
2669.000000	99.269601 
2668.000000	99.269780 
2667.000000	99.269325 
2666.000000	99.267927 
2665.000000	99.266366 
2664.000000	99.265713 
2663.000000	99.264927 
2662.000000	99.262067 
2661.000000	99.257821 
2660.000000	99.254951 
2659.000000	99.254084 
2658.000000	99.252743 
2657.000000	99.248900 
2656.000000	99.242810 
2655.000000	99.234974 
2654.000000	99.225110 
2653.000000	99.214071 
2652.000000	99.204401 
2651.000000	99.197842 
2650.000000	99.193910 
2649.000000	99.191536 
2648.000000	99.190444 
2647.000000	99.190503 
2646.000000	99.191315 
2645.000000	99.192878 
2644.000000	99.195525 
2643.000000	99.199527 
2642.000000	99.206083 
2641.000000	99.217758 
2640.000000	99.235744 
2639.000000	99.257099 
2638.000000	99.276699 
2637.000000	99.291428 
2636.000000	99.300759 
2635.000000	99.304779 
2634.000000	99.304648 
2633.000000	99.304011 
2632.000000	99.306330 
2631.000000	99.310634 
2630.000000	99.312619 
2629.000000	99.309791 
2628.000000	99.303164 
2627.000000	99.294708 
2626.000000	99.286203 
2625.000000	99.279889 
2624.000000	99.276792 
2623.000000	99.274642 
2622.000000	99.270548 
2621.000000	99.265121 
2620.000000	99.260608 
2619.000000	99.255964 
2618.000000	99.248026 
2617.000000	99.237131 
2616.000000	99.226802 
2615.000000	99.217405 
2614.000000	99.204859 
2613.000000	99.187109 
2612.000000	99.168157 
2611.000000	99.154146 
2610.000000	99.148386 
2609.000000	99.151148 
2608.000000	99.161225 
2607.000000	99.176439 
2606.000000	99.195022 
2605.000000	99.217112 
2604.000000	99.242726 
2603.000000	99.268623 
2602.000000	99.290271 
2601.000000	99.306948 
2600.000000	99.321666 
2599.000000	99.335918 
2598.000000	99.347891 
2597.000000	99.356190 
2596.000000	99.361853 
2595.000000	99.365906 
2594.000000	99.367975 
2593.000000	99.367982 
2592.000000	99.366557 
2591.000000	99.363503 
2590.000000	99.358684 
2589.000000	99.354513 
2588.000000	99.354371 
2587.000000	99.357894 
2586.000000	99.360368 
2585.000000	99.357201 
2584.000000	99.346983 
2583.000000	99.330622 
2582.000000	99.310097 
2581.000000	99.287901 
2580.000000	99.265486 
2579.000000	99.242779 
2578.000000	99.220883 
2577.000000	99.203331 
2576.000000	99.192081 
2575.000000	99.184693 
2574.000000	99.179052 
2573.000000	99.178495 
2572.000000	99.187750 
2571.000000	99.205595 
2570.000000	99.226325 
2569.000000	99.247038 
2568.000000	99.268408 
2567.000000	99.289380 
2566.000000	99.306708 
2565.000000	99.319817 
2564.000000	99.331251 
2563.000000	99.341974 
2562.000000	99.350344 
2561.000000	99.355483 
2560.000000	99.357519 
2559.000000	99.355129 
2558.000000	99.347548 
2557.000000	99.338711 
2556.000000	99.334454 
2555.000000	99.335304 
2554.000000	99.336435 
2553.000000	99.334921 
2552.000000	99.332760 
2551.000000	99.332607 
2550.000000	99.334966 
2549.000000	99.340147 
2548.000000	99.348989 
2547.000000	99.360730 
2546.000000	99.372987 
2545.000000	99.383964 
2544.000000	99.392394 
2543.000000	99.396697 
2542.000000	99.397351 
2541.000000	99.398325 
2540.000000	99.402165 
2539.000000	99.405088 
2538.000000	99.401143 
2537.000000	99.390068 
2536.000000	99.377231 
2535.000000	99.367451 
2534.000000	99.362954 
2533.000000	99.365096 
2532.000000	99.372962 
2531.000000	99.381855 
2530.000000	99.388211 
2529.000000	99.394563 
2528.000000	99.404965 
2527.000000	99.417720 
2526.000000	99.428049 
2525.000000	99.435730 
2524.000000	99.443681 
2523.000000	99.450315 
2522.000000	99.449792 
2521.000000	99.439477 
2520.000000	99.421958 
2519.000000	99.401203 
2518.000000	99.382334 
2517.000000	99.372569 
2516.000000	99.374548 
2515.000000	99.379742 
2514.000000	99.376658 
2513.000000	99.365994 
2512.000000	99.360257 
2511.000000	99.367624 
2510.000000	99.383303 
2509.000000	99.398035 
2508.000000	99.407900 
2507.000000	99.413397 
2506.000000	99.415035 
2505.000000	99.413141 
2504.000000	99.408104 
2503.000000	99.398866 
2502.000000	99.384198 
2501.000000	99.365764 
2500.000000	99.346535 
2499.000000	99.326918 
2498.000000	99.306522 
2497.000000	99.288076 
2496.000000	99.274162 
2495.000000	99.261112 
2494.000000	99.242515 
2493.000000	99.218712 
2492.000000	99.197037 
2491.000000	99.182870 
2490.000000	99.176152 
2489.000000	99.176128 
2488.000000	99.182764 
2487.000000	99.193037 
2486.000000	99.202264 
2485.000000	99.210193 
2484.000000	99.220182 
2483.000000	99.232002 
2482.000000	99.241520 
2481.000000	99.248118 
2480.000000	99.255979 
2479.000000	99.266493 
2478.000000	99.275179 
2477.000000	99.277888 
2476.000000	99.275072 
2475.000000	99.268759 
2474.000000	99.260514 
2473.000000	99.253510 
2472.000000	99.251128 
2471.000000	99.251798 
2470.000000	99.250123 
2469.000000	99.244812 
2468.000000	99.240921 
2467.000000	99.242598 
2466.000000	99.247829 
2465.000000	99.251983 
2464.000000	99.253085 
2463.000000	99.252690 
2462.000000	99.255068 
2461.000000	99.265697 
2460.000000	99.286353 
2459.000000	99.310898 
2458.000000	99.329534 
2457.000000	99.337730 
2456.000000	99.338256 
2455.000000	99.335962 
2454.000000	99.335185 
2453.000000	99.340955 
2452.000000	99.356325 
2451.000000	99.377460 
2450.000000	99.396349 
2449.000000	99.409380 
2448.000000	99.419396 
2447.000000	99.429530 
2446.000000	99.439840 
2445.000000	99.450090 
2444.000000	99.460800 
2443.000000	99.470932 
2442.000000	99.478848 
2441.000000	99.485608 
2440.000000	99.493103 
2439.000000	99.499684 
2438.000000	99.502653 
2437.000000	99.504469 
2436.000000	99.510783 
2435.000000	99.522273 
2434.000000	99.533867 
2433.000000	99.541979 
2432.000000	99.547030 
2431.000000	99.548990 
2430.000000	99.546864 
2429.000000	99.543621 
2428.000000	99.545364 
2427.000000	99.553535 
2426.000000	99.562785 
2425.000000	99.568191 
2424.000000	99.570112 
2423.000000	99.570463 
2422.000000	99.568729 
2421.000000	99.563715 
2420.000000	99.555886 
2419.000000	99.546489 
2418.000000	99.536948 
2417.000000	99.529419 
2416.000000	99.525004 
2415.000000	99.521361 
2414.000000	99.514815 
2413.000000	99.504325 
2412.000000	99.490904 
2411.000000	99.475046 
2410.000000	99.458519 
2409.000000	99.446657 
2408.000000	99.443826 
2407.000000	99.447431 
2406.000000	99.450795 
2405.000000	99.450781 
2404.000000	99.448223 
2403.000000	99.442857 
2402.000000	99.433694 
2401.000000	99.423578 
2400.000000	99.417519 
2399.000000	99.416182 
2398.000000	99.415496 
2397.000000	99.412407 
2396.000000	99.406738 
2395.000000	99.398591 
2394.000000	99.389133 
2393.000000	99.383212 
2392.000000	99.385284 
2391.000000	99.392018 
2390.000000	99.393561 
2389.000000	99.382875 
2388.000000	99.360461 
2387.000000	99.330866 
2386.000000	99.299555 
2385.000000	99.273504 
2384.000000	99.260044 
2383.000000	99.263471 
2382.000000	99.285214 
2381.000000	99.326277 
2380.000000	99.384415 
2379.000000	99.448706 
2378.000000	99.503140 
2377.000000	99.536835 
2376.000000	99.546117 
2375.000000	99.528153 
2374.000000	99.483044 
2373.000000	99.424689 
2372.000000	99.377613 
2371.000000	99.356920 
2370.000000	99.358499 
2369.000000	99.369913 
2368.000000	99.379632 
2367.000000	99.377051 
2366.000000	99.360300 
2365.000000	99.344228 
2364.000000	99.343763 
2363.000000	99.352870 
2362.000000	99.353717 
2361.000000	99.345528 
2360.000000	99.342052 
2359.000000	99.344551 
2358.000000	99.352200 
2357.000000	99.377960 
2356.000000	99.425666 
2355.000000	99.473475 
2354.000000	99.499537 
2353.000000	99.502388 
2352.000000	99.479471 
2351.000000	99.424369 
2350.000000	99.352188 
2349.000000	99.296195 
2348.000000	99.279874 
2347.000000	99.288860 
2346.000000	99.284939 
2345.000000	99.254190 
2344.000000	99.218564 
2343.000000	99.202195 
2342.000000	99.206709 
2341.000000	99.226882 
2340.000000	99.254112 
2339.000000	99.274382 
2338.000000	99.280743 
2337.000000	99.279866 
2336.000000	99.278051 
2335.000000	99.268995 
2334.000000	99.248775 
2333.000000	99.229183 
2332.000000	99.224428 
2331.000000	99.229534 
2330.000000	99.227435 
2329.000000	99.203438 
2328.000000	99.158806 
2327.000000	99.098843 
2326.000000	99.035827 
2325.000000	98.988572 
2324.000000	98.971942 
2323.000000	98.985670 
2322.000000	99.012880 
2321.000000	99.040292 
2320.000000	99.062615 
2319.000000	99.077784 
2318.000000	99.085650 
2317.000000	99.092401 
2316.000000	99.105239 
2315.000000	99.119073 
2314.000000	99.123015 
2313.000000	99.114020 
2312.000000	99.102686 
2311.000000	99.097573 
2310.000000	99.100893 
2309.000000	99.111688 
2308.000000	99.131328 
2307.000000	99.156707 
2306.000000	99.180304 
2305.000000	99.193466 
2304.000000	99.191126 
2303.000000	99.172227 
2302.000000	99.144570 
2301.000000	99.123428 
2300.000000	99.120398 
2299.000000	99.130536 
2298.000000	99.140244 
2297.000000	99.142804 
2296.000000	99.141765 
2295.000000	99.139644 
2294.000000	99.136207 
2293.000000	99.135611 
2292.000000	99.145776 
2291.000000	99.167297 
2290.000000	99.191160 
2289.000000	99.209440 
2288.000000	99.222084 
2287.000000	99.232636 
2286.000000	99.243919 
2285.000000	99.259357 
2284.000000	99.281338 
2283.000000	99.306775 
2282.000000	99.329309 
2281.000000	99.346359 
2280.000000	99.358316 
2279.000000	99.362933 
2278.000000	99.358678 
2277.000000	99.352458 
2276.000000	99.354387 
2275.000000	99.365101 
2274.000000	99.377541 
2273.000000	99.389454 
2272.000000	99.404071 
2271.000000	99.419043 
2270.000000	99.425852 
2269.000000	99.420921 
2268.000000	99.408216 
2267.000000	99.392110 
2266.000000	99.377381 
2265.000000	99.373646 
2264.000000	99.387736 
2263.000000	99.411918 
2262.000000	99.430166 
2261.000000	99.434556 
2260.000000	99.426490 
2259.000000	99.407922 
2258.000000	99.385110 
2257.000000	99.376167 
2256.000000	99.395714 
2255.000000	99.431565 
2254.000000	99.453719 
2253.000000	99.449230 
2252.000000	99.433913 
2251.000000	99.427806 
2250.000000	99.434378 
2249.000000	99.446193 
2248.000000	99.456760 
2247.000000	99.462058 
2246.000000	99.460960 
2245.000000	99.457468 
2244.000000	99.454841 
2243.000000	99.448553 
2242.000000	99.433896 
2241.000000	99.416664 
2240.000000	99.405128 
2239.000000	99.396488 
2238.000000	99.384684 
2237.000000	99.375685 
2236.000000	99.378712 
2235.000000	99.387390 
2234.000000	99.387695 
2233.000000	99.380809 
2232.000000	99.378873 
2231.000000	99.381295 
2230.000000	99.376064 
2229.000000	99.363018 
2228.000000	99.354712 
2227.000000	99.354436 
2226.000000	99.354354 
2225.000000	99.354849 
2224.000000	99.363548 
2223.000000	99.374473 
2222.000000	99.371660 
2221.000000	99.356745 
2220.000000	99.349698 
2219.000000	99.356992 
2218.000000	99.361209 
2217.000000	99.348768 
2216.000000	99.327732 
2215.000000	99.310588 
2214.000000	99.298004 
2213.000000	99.287399 
2212.000000	99.281701 
2211.000000	99.283301 
2210.000000	99.292405 
2209.000000	99.313213 
2208.000000	99.347089 
2207.000000	99.379979 
2206.000000	99.394368 
2205.000000	99.394709 
2204.000000	99.402942 
2203.000000	99.427790 
2202.000000	99.457261 
2201.000000	99.481995 
2200.000000	99.505604 
2199.000000	99.529246 
2198.000000	99.545579 
2197.000000	99.551980 
2196.000000	99.552433 
2195.000000	99.544523 
2194.000000	99.522544 
2193.000000	99.494300 
2192.000000	99.476180 
2191.000000	99.471274 
2190.000000	99.470805 
2189.000000	99.474504 
2188.000000	99.488046 
2187.000000	99.502775 
2186.000000	99.502990 
2185.000000	99.494337 
2184.000000	99.500699 
2183.000000	99.530069 
2182.000000	99.565705 
2181.000000	99.591336 
2180.000000	99.602429 
2179.000000	99.595044 
2178.000000	99.570198 
2177.000000	99.548106 
2176.000000	99.550027 
2175.000000	99.564586 
2174.000000	99.558583 
2173.000000	99.521066 
2172.000000	99.470876 
2171.000000	99.423067 
2170.000000	99.376322 
2169.000000	99.332581 
2168.000000	99.300254 
2167.000000	99.275728 
2166.000000	99.247188 
2165.000000	99.216736 
2164.000000	99.193685 
2163.000000	99.172488 
2162.000000	99.151622 
2161.000000	99.168241 
2160.000000	99.266581 
2159.000000	99.423899 
2158.000000	99.559913 
2157.000000	99.629412 
2156.000000	99.650741 
2155.000000	99.646317 
2154.000000	99.614341 
2153.000000	99.560674 
2152.000000	99.511715 
2151.000000	99.483856 
2150.000000	99.469082 
2149.000000	99.457684 
2148.000000	99.451885 
2147.000000	99.453595 
2146.000000	99.460705 
2145.000000	99.476921 
2144.000000	99.504377 
2143.000000	99.527552 
2142.000000	99.525845 
2141.000000	99.501449 
2140.000000	99.475671 
2139.000000	99.461302 
2138.000000	99.459083 
2137.000000	99.474882 
2136.000000	99.514763 
2135.000000	99.564678 
2134.000000	99.598864 
2133.000000	99.608874 
2132.000000	99.605093 
2131.000000	99.593604 
2130.000000	99.573197 
2129.000000	99.552033 
2128.000000	99.544833 
2127.000000	99.551978 
2126.000000	99.559074 
2125.000000	99.558068 
2124.000000	99.553365 
2123.000000	99.547958 
2122.000000	99.540109 
2121.000000	99.533462 
2120.000000	99.533624 
2119.000000	99.534090 
2118.000000	99.521487 
2117.000000	99.495851 
2116.000000	99.471453 
2115.000000	99.457789 
2114.000000	99.454142 
2113.000000	99.460621 
2112.000000	99.477391 
2111.000000	99.493849 
2110.000000	99.496547 
2109.000000	99.488882 
2108.000000	99.486178 
2107.000000	99.491279 
2106.000000	99.492786 
2105.000000	99.486965 
2104.000000	99.481760 
2103.000000	99.477847 
2102.000000	99.465812 
2101.000000	99.445313 
2100.000000	99.428750 
2099.000000	99.422551 
2098.000000	99.422183 
2097.000000	99.427600 
2096.000000	99.444292 
2095.000000	99.465579 
2094.000000	99.472596 
2093.000000	99.457594 
2092.000000	99.432618 
2091.000000	99.412447 
2090.000000	99.402447 
2089.000000	99.402662 
2088.000000	99.408691 
2087.000000	99.408341 
2086.000000	99.392305 
2085.000000	99.368617 
2084.000000	99.353009 
2083.000000	99.347149 
2082.000000	99.341818 
2081.000000	99.337074 
2080.000000	99.339942 
2079.000000	99.345150 
2078.000000	99.340297 
2077.000000	99.330228 
2076.000000	99.333878 
2075.000000	99.355051 
2074.000000	99.377157 
2073.000000	99.388580 
2072.000000	99.392992 
2071.000000	99.393215 
2070.000000	99.387466 
2069.000000	99.383249 
2068.000000	99.392774 
2067.000000	99.411859 
2066.000000	99.423861 
2065.000000	99.425366 
2064.000000	99.426883 
2063.000000	99.428780 
2062.000000	99.421013 
2061.000000	99.405785 
2060.000000	99.394657 
2059.000000	99.384575 
2058.000000	99.364522 
2057.000000	99.344665 
2056.000000	99.346663 
2055.000000	99.361418 
2054.000000	99.350105 
2053.000000	99.297712 
2052.000000	99.237011 
2051.000000	99.208683 
2050.000000	99.222085 
2049.000000	99.260679 
2048.000000	99.302193 
2047.000000	99.325733 
2046.000000	99.323654 
2045.000000	99.315676 
2044.000000	99.328136 
2043.000000	99.354794 
2042.000000	99.365014 
2041.000000	99.352235 
2040.000000	99.342149 
2039.000000	99.348346 
2038.000000	99.356696 
2037.000000	99.361665 
2036.000000	99.382251 
2035.000000	99.428993 
2034.000000	99.485894 
2033.000000	99.535973 
2032.000000	99.576290 
2031.000000	99.601375 
2030.000000	99.602627 
2029.000000	99.588903 
2028.000000	99.577750 
2027.000000	99.566809 
2026.000000	99.546610 
2025.000000	99.534426 
2024.000000	99.555582 
2023.000000	99.593809 
2022.000000	99.603603 
2021.000000	99.571793 
2020.000000	99.528146 
2019.000000	99.496144 
2018.000000	99.476332 
2017.000000	99.476809 
2016.000000	99.511787 
2015.000000	99.563631 
2014.000000	99.589434 
2013.000000	99.571815 
2012.000000	99.529594 
2011.000000	99.480097 
2010.000000	99.431103 
2009.000000	99.408373 
2008.000000	99.442141 
2007.000000	99.516231 
2006.000000	99.573198 
2005.000000	99.579301 
2004.000000	99.550194 
2003.000000	99.511236 
2002.000000	99.472755 
2001.000000	99.444386 
2000.000000	99.435226 
1999.000000	99.435079 
1998.000000	99.424122 
1997.000000	99.404865 
1996.000000	99.395800 
1995.000000	99.397195 
1994.000000	99.395009 
1993.000000	99.394776 
1992.000000	99.414570 
1991.000000	99.443775 
1990.000000	99.449244 
1989.000000	99.425298 
1988.000000	99.397381 
1987.000000	99.374288 
1986.000000	99.339409 
1985.000000	99.293555 
1984.000000	99.262172 
1983.000000	99.249406 
1982.000000	99.227131 
1981.000000	99.184042 
1980.000000	99.148865 
1979.000000	99.148512 
1978.000000	99.174935 
1977.000000	99.211683 
1976.000000	99.256598 
1975.000000	99.301792 
1974.000000	99.328045 
1973.000000	99.334034 
1972.000000	99.338771 
1971.000000	99.346601 
1970.000000	99.340716 
1969.000000	99.316081 
1968.000000	99.289001 
1967.000000	99.270328 
1966.000000	99.256674 
1965.000000	99.246748 
1964.000000	99.238761 
1963.000000	99.217641 
1962.000000	99.173868 
1961.000000	99.129724 
1960.000000	99.115498 
1959.000000	99.124016 
1958.000000	99.121926 
1957.000000	99.098191 
1956.000000	99.068943 
1955.000000	99.043625 
1954.000000	99.020403 
1953.000000	99.008575 
1952.000000	99.020417 
1951.000000	99.041923 
1950.000000	99.044225 
1949.000000	99.021623 
1948.000000	98.992207 
1947.000000	98.963541 
1946.000000	98.925750 
1945.000000	98.873794 
1944.000000	98.805053 
1943.000000	98.696761 
1942.000000	98.518224 
1941.000000	98.264731 
1940.000000	97.950760 
1939.000000	97.587096 
1938.000000	97.199699 
1937.000000	96.857793 
1936.000000	96.647863 
1935.000000	96.614173 
1934.000000	96.737707 
1933.000000	96.959143 
1932.000000	97.205092 
1931.000000	97.408263 
1930.000000	97.534354 
1929.000000	97.594357 
1928.000000	97.618284 
1927.000000	97.614623 
1926.000000	97.569607 
1925.000000	97.484449 
1924.000000	97.392706 
1923.000000	97.347820 
1922.000000	97.399331 
1921.000000	97.572691 
1920.000000	97.855313 
1919.000000	98.193379 
1918.000000	98.507799 
1917.000000	98.742033 
1916.000000	98.892763 
1915.000000	98.983869 
1914.000000	99.036919 
1913.000000	99.071741 
1912.000000	99.105736 
1911.000000	99.142309 
1910.000000	99.175994 
1909.000000	99.209464 
1908.000000	99.249001 
1907.000000	99.284972 
1906.000000	99.300495 
1905.000000	99.299609 
1904.000000	99.300369 
1903.000000	99.307560 
1902.000000	99.310436 
1901.000000	99.306245 
1900.000000	99.303764 
1899.000000	99.302716 
1898.000000	99.293139 
1897.000000	99.277967 
1896.000000	99.270923 
1895.000000	99.272869 
1894.000000	99.270242 
1893.000000	99.259414 
1892.000000	99.252398 
1891.000000	99.256459 
1890.000000	99.265044 
1889.000000	99.272440 
1888.000000	99.277556 
1887.000000	99.271837 
1886.000000	99.249056 
1885.000000	99.221873 
1884.000000	99.208161 
1883.000000	99.206683 
1882.000000	99.203803 
1881.000000	99.198905 
1880.000000	99.203890 
1879.000000	99.218884 
1878.000000	99.230637 
1877.000000	99.235712 
1876.000000	99.242046 
1875.000000	99.249134 
1874.000000	99.249795 
1873.000000	99.250662 
1872.000000	99.270074 
1871.000000	99.312934 
1870.000000	99.362759 
1869.000000	99.401369 
1868.000000	99.423579 
1867.000000	99.427105 
1866.000000	99.407974 
1865.000000	99.377896 
1864.000000	99.359413 
1863.000000	99.356309 
1862.000000	99.353482 
1861.000000	99.346531 
1860.000000	99.347561 
1859.000000	99.359711 
1858.000000	99.370671 
1857.000000	99.375226 
1856.000000	99.381096 
1855.000000	99.388212 
1854.000000	99.384970 
1853.000000	99.370108 
1852.000000	99.358953 
1851.000000	99.361771 
1850.000000	99.370131 
1849.000000	99.376615 
1848.000000	99.384139 
1847.000000	99.395403 
1846.000000	99.409067 
1845.000000	99.430873 
1844.000000	99.462412 
1843.000000	99.477410 
1842.000000	99.450760 
1841.000000	99.397148 
1840.000000	99.350006 
1839.000000	99.321293 
1838.000000	99.299161 
1837.000000	99.275330 
1836.000000	99.254425 
1835.000000	99.236820 
1834.000000	99.213579 
1833.000000	99.186852 
1832.000000	99.172713 
1831.000000	99.173374 
1830.000000	99.165821 
1829.000000	99.139013 
1828.000000	99.107703 
1827.000000	99.082471 
1826.000000	99.062928 
1825.000000	99.047027 
1824.000000	99.032758 
1823.000000	99.014082 
1822.000000	98.989960 
1821.000000	98.977034 
1820.000000	98.994466 
1819.000000	99.037320 
1818.000000	99.081114 
1817.000000	99.110702 
1816.000000	99.127844 
1815.000000	99.135678 
1814.000000	99.132165 
1813.000000	99.122506 
1812.000000	99.119286 
1811.000000	99.122801 
1810.000000	99.120659 
1809.000000	99.105144 
1808.000000	99.080360 
1807.000000	99.052457 
1806.000000	99.023869 
1805.000000	99.001212 
1804.000000	98.995132 
1803.000000	99.002860 
1802.000000	99.011466 
1801.000000	99.006374 
1800.000000	99.001463 
1799.000000	98.975368 
1798.000000	98.852795 
1797.000000	98.846764 
1796.000000	98.832371 
1795.000000	98.825454 
1794.000000	98.813783 
1793.000000	98.798831 
1792.000000	98.794959 
1791.000000	98.789230 
1790.000000	98.794683 
1789.000000	98.890384 
1788.000000	98.820607 
1787.000000	98.796521 
1786.000000	98.790411 
1785.000000	98.792031 
1784.000000	98.782019 
1783.000000	98.759482 
1782.000000	98.720665 
1781.000000	98.669941 
1780.000000	98.620900 
1779.000000	98.574330 
1778.000000	98.519750 
1777.000000	98.458719 
1776.000000	98.407392 
1775.000000	98.369737 
1774.000000	98.336691 
1773.000000	98.312698 
1772.000000	98.310849 
1771.000000	98.323509 
1770.000000	98.320626 
1769.000000	98.282944 
1768.000000	98.224197 
1767.000000	98.165144 
1766.000000	98.112165 
1765.000000	98.071100 
1764.000000	98.055033 
1763.000000	98.064522 
1762.000000	98.076570 
1761.000000	98.066094 
1760.000000	98.033149 
1759.000000	97.991432 
1758.000000	97.952890 
1757.000000	97.921078 
1756.000000	97.896385 
1755.000000	97.866068 
1754.000000	97.815129 
1753.000000	97.753751 
1752.000000	97.714188 
1751.000000	97.713113 
1750.000000	97.727936 
1749.000000	97.733147 
1748.000000	97.723582 
1747.000000	97.698882 
1746.000000	97.654954 
1745.000000	97.602656 
1744.000000	97.563203 
1743.000000	97.540771 
1742.000000	97.524205 
1741.000000	97.505904 
1740.000000	97.486434 
1739.000000	97.460919 
1738.000000	97.424812 
1737.000000	97.386916 
1736.000000	97.363708 
1735.000000	97.369721 
1734.000000	97.388434 
1733.000000	97.382533 
1732.000000	97.368837 
1731.000000	97.379250 
1730.000000	97.398662 
1729.000000	97.399429 
1728.000000	97.386997 
1727.000000	97.374355 
1726.000000	97.361286 
1725.000000	97.355878 
1724.000000	97.363169 
1723.000000	97.366160 
1722.000000	97.378956 
1721.000000	97.379367 
1720.000000	97.382844 
1719.000000	97.391653 
1718.000000	97.404576 
1717.000000	97.403337 
1716.000000	97.427943 
1715.000000	97.555338 
1714.000000	97.586787 
1713.000000	97.583924 
1712.000000	97.538013 
1711.000000	97.492712 
1710.000000	97.460546 
1709.000000	97.445288 
1708.000000	97.453295 
1707.000000	97.480498 
1706.000000	97.493756 
1705.000000	97.474471 
1704.000000	97.443116 
1703.000000	97.417155 
1702.000000	97.390390 
1701.000000	97.369542 
1700.000000	97.334799 
1699.000000	97.199088 
1698.000000	96.948150 
1697.000000	96.653085 
1696.000000	96.384545 
1695.000000	96.205432 
1694.000000	96.100690 
1693.000000	96.017864 
1692.000000	95.937577 
1691.000000	95.845851 
1690.000000	95.752006 
1689.000000	95.673402 
1688.000000	95.606469 
1687.000000	95.519911 
1686.000000	95.396147 
1685.000000	95.265836 
1684.000000	95.157076 
1683.000000	95.052239 
1682.000000	94.854781 
1681.000000	94.463310 
1680.000000	93.889339 
1679.000000	93.160534 
1678.000000	92.185837 
1677.000000	90.697777 
1676.000000	88.521864 
1675.000000	86.074479 
1674.000000	84.176605 
1673.000000	83.174342 
1672.000000	82.815705 
1671.000000	82.655661 
1670.000000	82.322920 
1669.000000	81.709166 
1668.000000	80.900561 
1667.000000	79.877658 
1666.000000	78.447684 
1665.000000	76.353325 
1664.000000	73.371764 
1663.000000	69.501600 
1662.000000	65.098921 
1661.000000	60.605351 
1660.000000	56.264364 
1659.000000	52.296224 
1658.000000	49.070895 
1657.000000	46.903844 
1656.000000	45.914368 
1655.000000	46.301866 
1654.000000	48.588075 
1653.000000	52.471188 
1652.000000	56.114671 
1651.000000	58.609822 
1650.000000	60.416513 
1649.000000	61.923615 
1648.000000	63.162433 
1647.000000	64.100641 
1646.000000	64.797036 
1645.000000	65.392449 
1644.000000	66.032120 
1643.000000	66.841004 
1642.000000	67.843603 
1641.000000	68.977011 
1640.000000	70.192169 
1639.000000	71.499570 
1638.000000	72.953251 
1637.000000	74.618281 
1636.000000	76.443187 
1635.000000	78.105315 
1634.000000	79.223825 
1633.000000	79.698956 
1632.000000	79.635258 
1631.000000	79.057987 
1630.000000	77.776768 
1629.000000	75.469745 
1628.000000	72.026191 
1627.000000	67.775328 
1626.000000	63.145013 
1625.000000	58.285783 
1624.000000	53.368302 
1623.000000	49.091092 
1622.000000	46.283229 
1621.000000	45.031974 
1620.000000	44.865362 
1619.000000	45.423911 
1618.000000	46.555067 
1617.000000	48.004592 
1616.000000	49.369174 
1615.000000	50.500888 
1614.000000	51.585269 
1613.000000	52.833343 
1612.000000	54.353777 
1611.000000	56.175196 
1610.000000	58.230764 
1609.000000	60.344620 
1608.000000	62.295258 
1607.000000	63.921895 
1606.000000	65.191070 
1605.000000	66.169154 
1604.000000	66.952715 
1603.000000	67.643923 
1602.000000	68.363807 
1601.000000	69.224632 
1600.000000	70.284242 
1599.000000	71.549755 
1598.000000	73.003475 
1597.000000	74.591831 
1596.000000	76.197069 
1595.000000	77.670908 
1594.000000	78.929344 
1593.000000	79.983012 
1592.000000	80.859059 
1591.000000	81.553346 
1590.000000	82.079535 
1589.000000	82.488690 
1588.000000	82.800809 
1587.000000	82.981988 
1586.000000	83.024593 
1585.000000	82.978038 
1584.000000	82.868353 
1583.000000	82.661312 
1582.000000	82.351184 
1581.000000	82.016563 
1580.000000	81.715740 
1579.000000	81.404134 
1578.000000	81.015262 
1577.000000	80.579405 
1576.000000	80.194650 
1575.000000	79.913111 
1574.000000	79.735736 
1573.000000	79.650667 
1572.000000	79.596523 
1571.000000	79.455521 
1570.000000	79.163195 
1569.000000	78.777278 
1568.000000	78.326944 
1567.000000	77.691783 
1566.000000	76.749792 
1565.000000	75.515037 
1564.000000	74.080989 
1563.000000	72.515760 
1562.000000	70.751284 
1561.000000	68.493744 
1560.000000	65.063974 
1559.000000	60.270098 
1558.000000	55.618610 
1557.000000	52.089702 
1556.000000	48.943092 
1555.000000	45.432677 
1554.000000	41.500427 
1553.000000	37.584569 
1552.000000	33.940120 
1551.000000	30.493373 
1550.000000	27.327769 
1549.000000	24.829079 
1548.000000	23.254997 
1547.000000	22.519426 
1546.000000	22.418291 
1545.000000	22.771685 
1544.000000	23.416816 
1543.000000	24.248779 
1542.000000	25.257414 
1541.000000	26.475232 
1540.000000	27.907382 
1539.000000	29.481934 
1538.000000	31.062619 
1537.000000	32.595591 
1536.000000	34.198072 
1535.000000	36.078157 
1534.000000	38.328225 
1533.000000	40.678029 
1532.000000	42.765250 
1531.000000	44.572926 
1530.000000	46.279194 
1529.000000	47.973679 
1528.000000	49.659003 
1527.000000	51.349296 
1526.000000	53.025476 
1525.000000	54.588206 
1524.000000	56.012412 
1523.000000	57.447626 
1522.000000	59.031157 
1521.000000	60.637030 
1520.000000	62.057438 
1519.000000	63.337149 
1518.000000	64.633265 
1517.000000	65.951715 
1516.000000	67.189761 
1515.000000	68.326936 
1514.000000	69.420781 
1513.000000	70.495520 
1512.000000	71.541542 
1511.000000	72.565536 
1510.000000	73.574645 
1509.000000	74.552969 
1508.000000	75.531896 
1507.000000	76.601115 
1506.000000	77.706763 
1505.000000	78.591164 
1504.000000	79.191870 
1503.000000	79.743675 
1502.000000	80.357889 
1501.000000	80.982300 
1500.000000	81.560928 
1499.000000	82.115288 
1498.000000	82.664005 
1497.000000	83.145559 
1496.000000	83.519942 
1495.000000	83.857558 
1494.000000	84.212021 
1493.000000	84.542050 
1492.000000	84.821678 
1491.000000	85.101228 
1490.000000	85.388544 
1489.000000	85.594771 
1488.000000	85.691794 
1487.000000	85.753591 
1486.000000	85.815772 
1485.000000	85.832138 
1484.000000	85.790418 
1483.000000	85.744936 
1482.000000	85.709748 
1481.000000	85.629346 
1480.000000	85.483028 
1479.000000	85.316738 
1478.000000	85.132812 
1477.000000	84.858797 
1476.000000	84.455995 
1475.000000	83.947882 
1474.000000	83.278658 
1473.000000	82.298856 
1472.000000	81.004953 
1471.000000	79.550878 
1470.000000	77.975928 
1469.000000	76.231235 
1468.000000	74.383861 
1467.000000	72.631827 
1466.000000	71.176531 
1465.000000	70.129622 
1464.000000	69.482432 
1463.000000	69.076713 
1462.000000	68.674292 
1461.000000	68.092377 
1460.000000	67.231183 
1459.000000	65.983903 
1458.000000	64.161821 
1457.000000	61.839261 
1456.000000	59.695944 
1455.000000	58.354407 
1454.000000	57.912566 
1453.000000	58.310109 
1452.000000	59.491281 
1451.000000	61.295235 
1450.000000	63.446290 
1449.000000	65.681616 
1448.000000	67.790824 
1447.000000	69.621735 
1446.000000	71.135131 
1445.000000	72.383356 
1444.000000	73.434577 
1443.000000	74.339360 
1442.000000	75.130618 
1441.000000	75.812114 
1440.000000	76.386118 
1439.000000	76.900185 
1438.000000	77.425926 
1437.000000	77.952180 
1436.000000	78.359158 
1435.000000	78.591502 
1434.000000	78.719084 
1433.000000	78.790839 
1432.000000	78.785367 
1431.000000	78.684619 
1430.000000	78.483742 
1429.000000	78.143603 
1428.000000	77.620407 
1427.000000	76.911425 
1426.000000	75.985689 
1425.000000	74.741739 
1424.000000	73.167347 
1423.000000	71.443102 
1422.000000	69.705102 
1421.000000	67.856736 
1420.000000	65.787473 
1419.000000	63.703181 
1418.000000	61.976909 
1417.000000	60.682423 
1416.000000	59.628942 
1415.000000	58.640805 
1414.000000	57.599023 
1413.000000	56.453692 
1412.000000	55.307967 
1411.000000	54.399439 
1410.000000	53.925494 
1409.000000	53.952761 
1408.000000	54.487859 
1407.000000	55.498042 
1406.000000	56.853700 
1405.000000	58.366404 
1404.000000	59.902658 
1403.000000	61.413474 
1402.000000	62.909092 
1401.000000	64.460122 
1400.000000	66.149236 
1399.000000	67.937357 
1398.000000	69.654587 
1397.000000	71.190462 
1396.000000	72.569332 
1395.000000	73.808783 
1394.000000	74.814076 
1393.000000	75.458092 
1392.000000	75.678557 
1391.000000	75.417137 
1390.000000	74.516869 
1389.000000	72.797657 
1388.000000	70.405883 
1387.000000	68.139735 
1386.000000	67.071619 
1385.000000	67.714901 
1384.000000	69.794858 
1383.000000	72.592791 
1382.000000	75.340717 
1381.000000	77.564048 
1380.000000	79.181041 
1379.000000	80.311796 
1378.000000	81.084708 
1377.000000	81.591055 
1376.000000	81.875912 
1375.000000	81.897874 
1374.000000	81.516266 
1373.000000	80.514955 
1372.000000	78.616971 
1371.000000	75.605058 
1370.000000	71.679458 
1369.000000	67.815408 
1368.000000	65.491786 
1367.000000	65.665497 
1366.000000	68.084950 
1365.000000	71.687003 
1364.000000	75.371467 
1363.000000	78.428466 
1362.000000	80.632832 
1361.000000	82.120221 
1360.000000	83.142809 
1359.000000	83.903084 
1358.000000	84.515027 
1357.000000	85.021957 
1356.000000	85.436340 
1355.000000	85.772285 
1354.000000	86.047565 
1353.000000	86.270649 
1352.000000	86.444036 
1351.000000	86.578272 
1350.000000	86.688742 
1349.000000	86.781063 
1348.000000	86.851838 
1347.000000	86.900415 
1346.000000	86.930718 
1345.000000	86.943883 
1344.000000	86.941882 
1343.000000	86.935775 
1342.000000	86.940100 
1341.000000	86.960766 
1340.000000	86.999539 
1339.000000	87.064778 
1338.000000	87.156573 
1337.000000	87.244322 
1336.000000	87.277316 
1335.000000	87.208251 
1334.000000	86.994233 
1333.000000	86.585155 
1332.000000	85.927383 
1331.000000	84.981740 
1330.000000	83.730529 
1329.000000	82.182872 
1328.000000	80.420117 
1327.000000	78.665102 
1326.000000	77.283514 
1325.000000	76.668600 
1324.000000	77.064302 
1323.000000	78.424459 
1322.000000	80.411157 
1321.000000	82.559352 
1320.000000	84.482009 
1319.000000	85.971866 
1318.000000	86.983151 
1317.000000	87.554167 
1316.000000	87.734037 
1315.000000	87.546897 
1314.000000	86.990427 
1313.000000	86.057914 
1312.000000	84.768263 
1311.000000	83.167724 
1310.000000	81.290647 
1309.000000	79.145307 
1308.000000	76.801545 
1307.000000	74.534249 
1306.000000	72.857897 
1305.000000	72.352152 
1304.000000	73.360095 
1303.000000	75.751692 
1302.000000	78.950754 
1301.000000	82.245696 
1300.000000	85.127554 
1299.000000	87.402965 
1298.000000	89.099148 
1297.000000	90.326509 
1296.000000	91.202350 
1295.000000	91.827837 
1294.000000	92.277169 
1293.000000	92.593263 
1292.000000	92.799916 
1291.000000	92.917354 
1290.000000	92.963281 
1289.000000	92.949885 
1288.000000	92.893144 
1287.000000	92.820251 
1286.000000	92.756534 
1285.000000	92.711015 
1284.000000	92.686019 
1283.000000	92.693254 
1282.000000	92.746467 
1281.000000	92.842298 
1280.000000	92.960439 
1279.000000	93.079173 
1278.000000	93.181169 
1277.000000	93.250275 
1276.000000	93.276194 
1275.000000	93.261326 
1274.000000	93.212586 
1273.000000	93.128598 
1272.000000	93.003991 
1271.000000	92.841215 
1270.000000	92.645469 
1269.000000	92.411958 
1268.000000	92.131202 
1267.000000	91.802468 
1266.000000	91.428585 
1265.000000	91.002155 
1264.000000	90.509979 
1263.000000	89.944896 
1262.000000	89.298411 
1261.000000	88.548235 
1260.000000	87.668131 
1259.000000	86.639664 
1258.000000	85.433717 
1257.000000	83.987687 
1256.000000	82.218520 
1255.000000	80.046301 
1254.000000	77.384623 
1253.000000	74.128102 
1252.000000	70.193257 
1251.000000	65.579576 
1250.000000	60.375228 
1249.000000	54.735083 
1248.000000	48.910762 
1247.000000	43.295272 
1246.000000	38.394053 
1245.000000	34.753511 
1244.000000	32.884031 
1243.000000	33.100609 
1242.000000	35.331481 
1241.000000	39.124331 
1240.000000	43.865757 
1239.000000	48.976762 
1238.000000	53.992036 
1237.000000	58.610408 
1236.000000	62.721839 
1235.000000	66.353377 
1234.000000	69.570452 
1233.000000	72.424038 
1232.000000	74.954907 
1231.000000	77.197799 
1230.000000	79.169789 
1229.000000	80.876164 
1228.000000	82.336771 
1227.000000	83.594228 
1226.000000	84.691578 
1225.000000	85.654261 
1224.000000	86.499437 
1223.000000	87.247790 
1222.000000	87.914579 
1221.000000	88.501131 
1220.000000	89.010306 
1219.000000	89.463846 
1218.000000	89.890864 
1217.000000	90.304066 
1216.000000	90.699083 
1215.000000	91.070261 
1214.000000	91.413021 
1213.000000	91.716948 
1212.000000	91.973484 
1211.000000	92.189880 
1210.000000	92.383102 
1209.000000	92.562293 
1208.000000	92.728970 
1207.000000	92.888659 
1206.000000	93.046946 
1205.000000	93.198232 
1204.000000	93.334570 
1203.000000	93.462779 
1202.000000	93.596661 
1201.000000	93.734333 
1200.000000	93.859318 
1199.000000	93.962689 
1198.000000	94.048623 
1197.000000	94.119250 
1196.000000	94.169891 
1195.000000	94.199205 
1194.000000	94.208309 
1193.000000	94.189049 
1192.000000	94.127298 
1191.000000	94.017491 
1190.000000	93.859467 
1189.000000	93.641811 
1188.000000	93.343765 
1187.000000	92.952782 
1186.000000	92.464019 
1185.000000	91.862836 
1184.000000	91.123607 
1183.000000	90.223358 
1182.000000	89.138655 
1181.000000	87.832493 
1180.000000	86.264639 
1179.000000	84.410959 
1178.000000	82.250633 
1177.000000	79.744225 
1176.000000	76.862396 
1175.000000	73.650490 
1174.000000	70.260413 
1173.000000	66.943949 
1172.000000	64.039411 
1171.000000	61.912619 
1170.000000	60.819616 
1169.000000	60.789218 
1168.000000	61.619882 
1167.000000	62.947143 
1166.000000	64.334024 
1165.000000	65.400564 
1164.000000	65.949975 
1163.000000	65.995990 
1162.000000	65.686565 
1161.000000	65.228174 
1160.000000	64.868727 
1159.000000	64.867549 
1158.000000	65.403392 
1157.000000	66.509264 
1156.000000	68.103571 
1155.000000	70.049214 
1154.000000	72.179372 
1153.000000	74.324707 
1152.000000	76.359012 
1151.000000	78.216713 
1150.000000	79.867031 
1149.000000	81.292513 
1148.000000	82.499243 
1147.000000	83.523704 
1146.000000	84.407105 
1145.000000	85.168367 
1144.000000	85.811143 
1143.000000	86.340572 
1142.000000	86.753347 
1141.000000	87.021139 
1140.000000	87.101722 
1139.000000	86.955795 
1138.000000	86.529690 
1137.000000	85.724883 
1136.000000	84.405518 
1135.000000	82.442740 
1134.000000	79.767318 
1133.000000	76.451933 
1132.000000	72.834613 
1131.000000	69.559096 
1130.000000	67.379057 
1129.000000	66.816505 
1128.000000	67.942044 
1127.000000	70.392762 
1126.000000	73.567437 
1125.000000	76.886435 
1124.000000	79.968352 
1123.000000	82.644518 
1122.000000	84.876934 
1121.000000	86.685382 
1120.000000	88.119183 
1119.000000	89.245765 
1118.000000	90.131640 
1117.000000	90.828728 
1116.000000	91.383031 
1115.000000	91.845741 
1114.000000	92.259626 
1113.000000	92.639058 
1112.000000	92.978459 
1111.000000	93.276353 
1110.000000	93.537800 
1109.000000	93.761418 
1108.000000	93.943865 
1107.000000	94.095013 
1106.000000	94.231101 
1105.000000	94.354903 
1104.000000	94.459667 
1103.000000	94.549108 
1102.000000	94.635245 
1101.000000	94.719208 
1100.000000	94.792208 
1099.000000	94.852891 
1098.000000	94.906080 
1097.000000	94.947986 
1096.000000	94.971886 
1095.000000	94.985786 
1094.000000	95.005562 
1093.000000	95.032679 
1092.000000	95.055889 
1091.000000	95.070339 
1090.000000	95.076878 
1089.000000	95.068742 
1088.000000	95.039370 
1087.000000	94.997740 
1086.000000	94.954881 
1085.000000	94.901515 
1084.000000	94.821182 
1083.000000	94.718024 
1082.000000	94.606576 
1081.000000	94.480428 
1080.000000	94.317100 
1079.000000	94.107103 
1078.000000	93.848284 
1077.000000	93.513842 
1076.000000	93.050842 
1075.000000	92.397274 
1074.000000	91.463693 
1073.000000	90.121963 
1072.000000	88.305338 
1071.000000	86.183595 
1070.000000	84.204866 
1069.000000	82.880143 
1068.000000	82.453682 
1067.000000	82.716745 
1066.000000	83.125478 
1065.000000	83.175894 
1064.000000	82.764598 
1063.000000	82.248315 
1062.000000	82.161222 
1061.000000	82.840484 
1060.000000	84.252072 
1059.000000	86.073824 
1058.000000	87.908172 
1057.000000	89.476036 
1056.000000	90.688843 
1055.000000	91.593695 
1054.000000	92.273604 
1053.000000	92.789086 
1052.000000	93.182205 
1051.000000	93.493998 
1050.000000	93.753876 
1049.000000	93.967358 
1048.000000	94.134907 
1047.000000	94.270623 
1046.000000	94.387296 
1045.000000	94.480563 
1044.000000	94.546397 
1043.000000	94.600262 
1042.000000	94.660829 
1041.000000	94.726785 
1040.000000	94.787753 
1039.000000	94.845705 
1038.000000	94.905825 
1037.000000	94.958367 
1036.000000	94.991721 
1035.000000	95.014446 
1034.000000	95.043280 
1033.000000	95.077462 
1032.000000	95.104742 
1031.000000	95.123647 
1030.000000	95.139315 
1029.000000	95.146296 
1028.000000	95.137033 
1027.000000	95.120239 
1026.000000	95.110515 
1025.000000	95.106393 
1024.000000	95.097206 
1023.000000	95.083494 
1022.000000	95.072018 
1021.000000	95.059475 
1020.000000	95.039743 
1019.000000	95.017951 
1018.000000	94.998932 
1017.000000	94.972009 
1016.000000	94.925987 
1015.000000	94.868671 
1014.000000	94.812617 
1013.000000	94.752110 
1012.000000	94.672369 
1011.000000	94.569551 
1010.000000	94.443481 
1009.000000	94.283519 
1008.000000	94.079432 
1007.000000	93.831160 
1006.000000	93.528396 
1005.000000	93.135278 
1004.000000	92.611616 
1003.000000	91.926489 
1002.000000	91.025250 
1001.000000	89.799253 
1000.000000	88.109488 
999.000000	 85.826275 
998.000000	 82.852245 
997.000000	 79.192064 
996.000000	 75.091419 
995.000000	 71.083775 
994.000000	 67.782164 
993.000000	 65.540024 
992.000000	 64.269779 
991.000000	 63.524767 
990.000000	 62.761658 
989.000000	 61.663244 
988.000000	 60.351991 
987.000000	 59.317555 
986.000000	 59.079291 
985.000000	 59.863607 
984.000000	 61.522503 
983.000000	 63.631503 
982.000000	 65.653117 
981.000000	 67.179794 
980.000000	 68.192775 
979.000000	 69.103240 
978.000000	 70.454120 
977.000000	 72.510315 
976.000000	 75.083975 
975.000000	 77.674903 
974.000000	 79.742236 
973.000000	 80.886708 
972.000000	 80.822856 
971.000000	 79.211991 
970.000000	 75.652261 
969.000000	 70.092577 
968.000000	 63.412483 
967.000000	 57.361441 
966.000000	 53.448129 
965.000000	 51.696990 
964.000000	 50.708292 
963.000000	 49.130599 
962.000000	 47.050445 
961.000000	 45.902278 
960.000000	 47.136976 
959.000000	 51.044040 
958.000000	 56.672303 
957.000000	 62.618589 
956.000000	 67.828705 
955.000000	 71.899173 
954.000000	 74.961241 
953.000000	 77.386330 
952.000000	 79.495791 
951.000000	 81.425251 
950.000000	 83.182048 
949.000000	 84.767014 
948.000000	 86.212099 
947.000000	 87.537054 
946.000000	 88.724244 
945.000000	 89.744296 
944.000000	 90.585389 
943.000000	 91.256776 
942.000000	 91.779556 
941.000000	 92.176516 
940.000000	 92.464171 
939.000000	 92.652996 
938.000000	 92.752909 
937.000000	 92.772156 
936.000000	 92.710299 
935.000000	 92.555998 
934.000000	 92.288374 
933.000000	 91.875728 
932.000000	 91.279901 
931.000000	 90.475730 
930.000000	 89.476389 
929.000000	 88.351875 
928.000000	 87.234565 
927.000000	 86.288546 
926.000000	 85.619655 
925.000000	 85.170422 
924.000000	 84.693412 
923.000000	 83.847328 
922.000000	 82.379850 
921.000000	 80.308928 
920.000000	 77.991450 
919.000000	 75.994431 
918.000000	 74.807417 
917.000000	 74.611621 
916.000000	 75.298127 
915.000000	 76.657812 
914.000000	 78.510164 
913.000000	 80.676524 
912.000000	 82.907627 
911.000000	 84.902554 
910.000000	 86.418496 
909.000000	 87.361271 
908.000000	 87.795030 
907.000000	 87.910223 
906.000000	 87.975518 
905.000000	 88.247916 
904.000000	 88.860104 
903.000000	 89.767001 
902.000000	 90.801348 
901.000000	 91.789661 
900.000000	 92.631414 
899.000000	 93.303566 
898.000000	 93.826231 
897.000000	 94.231291 
896.000000	 94.548669 
895.000000	 94.805189 
894.000000	 95.022931 
893.000000	 95.212125 
892.000000	 95.369685 
891.000000	 95.490983 
890.000000	 95.581757 
889.000000	 95.655040 
888.000000	 95.720179 
887.000000	 95.779278 
886.000000	 95.830638 
885.000000	 95.871312 
884.000000	 95.899548 
883.000000	 95.918210 
882.000000	 95.932795 
881.000000	 95.944977 
880.000000	 95.953344 
879.000000	 95.960719 
878.000000	 95.972486 
877.000000	 95.986101 
876.000000	 95.991555 
875.000000	 95.985037 
874.000000	 95.973382 
873.000000	 95.962862 
872.000000	 95.953049 
871.000000	 95.943636 
870.000000	 95.937285 
869.000000	 95.933510 
868.000000	 95.928788 
867.000000	 95.923822 
866.000000	 95.921462 
865.000000	 95.917094 
864.000000	 95.901032 
863.000000	 95.871207 
862.000000	 95.834238 
861.000000	 95.794159 
860.000000	 95.749426 
859.000000	 95.698739 
858.000000	 95.637488 
857.000000	 95.548941 
856.000000	 95.409865 
855.000000	 95.200638 
854.000000	 94.889693 
853.000000	 94.398597 
852.000000	 93.594102 
851.000000	 92.340879 
850.000000	 90.611599 
849.000000	 88.613367 
848.000000	 86.831509 
847.000000	 85.864220 
846.000000	 86.069980 
845.000000	 87.310308 
844.000000	 89.051062 
843.000000	 90.725232 
842.000000	 92.023721 
841.000000	 92.917213 
840.000000	 93.505232 
839.000000	 93.893426 
838.000000	 94.159005 
837.000000	 94.347662 
836.000000	 94.476980 
835.000000	 94.556544 
834.000000	 94.603770 
833.000000	 94.632447 
832.000000	 94.640310 
831.000000	 94.622343 
830.000000	 94.584299 
829.000000	 94.531850 
828.000000	 94.463453 
827.000000	 94.387360 
826.000000	 94.323979 
825.000000	 94.273143 
824.000000	 94.202413 
823.000000	 94.088057 
822.000000	 93.941531 
821.000000	 93.775992 
820.000000	 93.576210 
819.000000	 93.318051 
818.000000	 92.983081 
817.000000	 92.529070 
816.000000	 91.858311 
815.000000	 90.795361 
814.000000	 89.023746 
813.000000	 86.053887 
812.000000	 81.460969 
811.000000	 75.430510 
810.000000	 69.135429 
809.000000	 64.373319 
808.000000	 62.573369 
807.000000	 63.959411 
806.000000	 67.550631 
805.000000	 71.925637 
804.000000	 76.014839 
803.000000	 79.353452 
802.000000	 81.899758 
801.000000	 83.792799 
800.000000	 85.210836 
799.000000	 86.297202 
798.000000	 87.132999 
797.000000	 87.765117 
796.000000	 88.242560 
795.000000	 88.607122 
794.000000	 88.868340 
793.000000	 89.021787 
792.000000	 89.090826 
791.000000	 89.126765 
790.000000	 89.169091 
789.000000	 89.225736 
788.000000	 89.288919 
787.000000	 89.347075 
786.000000	 89.381887 
785.000000	 89.377932 
784.000000	 89.340236 
783.000000	 89.284674 
782.000000	 89.210152 
781.000000	 89.099946 
780.000000	 88.951712 
779.000000	 88.784599 
778.000000	 88.613509 
777.000000	 88.437987 
776.000000	 88.260053 
775.000000	 88.088241 
774.000000	 87.915844 
773.000000	 87.718820 
772.000000	 87.486784 
771.000000	 87.236969 
770.000000	 86.988388 
769.000000	 86.741418 
768.000000	 86.490883 
767.000000	 86.237782 
766.000000	 85.978547 
765.000000	 85.703864 
764.000000	 85.417295 
763.000000	 85.133806 
762.000000	 84.851998 
761.000000	 84.551644 
760.000000	 84.227414 
759.000000	 83.898616 
758.000000	 83.574227 
757.000000	 83.236278 
756.000000	 82.872884 
755.000000	 82.501160 
754.000000	 82.140781 
753.000000	 81.788815 
752.000000	 81.435240 
751.000000	 81.078283 
750.000000	 80.709574 
749.000000	 80.309853 
748.000000	 79.875804 
747.000000	 79.428601 
746.000000	 78.982801 
745.000000	 78.529388 
744.000000	 78.057786 
743.000000	 77.565569 
742.000000	 77.036898 
741.000000	 76.445016 
740.000000	 75.788930 
739.000000	 75.093043 
738.000000	 74.357735 
737.000000	 73.547435 
736.000000	 72.640993 
735.000000	 71.653668 
734.000000	 70.592393 
733.000000	 69.431760 
732.000000	 68.156164 
731.000000	 66.785157 
730.000000	 65.334578 
729.000000	 63.792895 
728.000000	 62.159387 
727.000000	 60.464649 
726.000000	 58.733831 
725.000000	 56.975035 
724.000000	 55.217072 
723.000000	 53.505273 
722.000000	 51.846852 
721.000000	 50.218211 
720.000000	 48.645867 
719.000000	 47.210400 
718.000000	 45.941141 
717.000000	 44.782658 
716.000000	 43.684328 
715.000000	 42.653699 
714.000000	 41.707308 
713.000000	 40.834290 
712.000000	 40.039957 
711.000000	 39.369192 
710.000000	 38.852327 
709.000000	 38.473009 
708.000000	 38.214246 
707.000000	 38.091255 
706.000000	 38.115772 
705.000000	 38.272683 
704.000000	 38.552275 
703.000000	 38.962144 
702.000000	 39.492888 
701.000000	 40.115707 
700.000000	 40.826317 
699.000000	 41.648262 
698.000000	 42.577677 
697.000000	 43.567838 
696.000000	 44.583117 
695.000000	 45.623878 
694.000000	 46.685326 
693.000000	 47.736921 
692.000000	 48.764205 
691.000000	 49.791233 
690.000000	 50.832227 
689.000000	 51.858845 
688.000000	 52.847622 
687.000000	 53.822749 
686.000000	 54.816736 
685.000000	 55.822139 
684.000000	 56.817049 
683.000000	 57.804886 
682.000000	 58.791482 
681.000000	 59.755940 
680.000000	 60.681870 
679.000000	 61.589846 
678.000000	 62.495035 
677.000000	 63.364131 
676.000000	 64.161160 
675.000000	 64.872511 
674.000000	 65.464088 
673.000000	 65.836333 
672.000000	 65.988470 
671.000000	 65.937572 
670.000000	 65.488623 
669.000000	 63.749984 
668.000000	 60.303539 
667.000000	 56.953981 
666.000000	 54.889567 
665.000000	 53.534921 
664.000000	 52.525045 
663.000000	 52.052732 
662.000000	 52.407651 
661.000000	 53.532021 
660.000000	 55.162628 
659.000000	 57.092128 
658.000000	 59.104432 
657.000000	 60.985054 
656.000000	 62.653526 
655.000000	 64.168613 
654.000000	 65.555972 
653.000000	 66.831728 
652.000000	 67.944192 
651.000000	 69.038381 
650.000000	 69.732463 

