PE IR                   SPECTRUM    ASCII       PEDS        1.60        
  -1
~SP.SP
18/03/22
14:23:45.00
18/03/22
14:23:45.00
Claudia

650.000000
16









SPECTRUM 100,CPU32 MAIN 00.02.8200 12-DECEMBER-2006 10:00:00
MIR TGS
MIR
OPTKBR
78890
0.200000

4.000000
STRONG
RATIO
SPECTRUM
MAGNITUDE
UNIVERSAL ATR
DOUBLE

COMBINED


0


#HDR
-1
-1
#GR
CM-1
%T
0.00002384185791015625
0.0
4000.000000
-1.000000
3351
8
100.707658
58.499356
#DATA
4000.000000	100.133706 
3999.000000	100.130974 
3998.000000	100.131190 
3997.000000	100.130631 
3996.000000	100.130902 
3995.000000	100.130260 
3994.000000	100.130636 
3993.000000	100.134614 
3992.000000	100.142829 
3991.000000	100.152851 
3990.000000	100.160738 
3989.000000	100.163376 
3988.000000	100.159397 
3987.000000	100.148668 
3986.000000	100.132170 
3985.000000	100.112813 
3984.000000	100.095629 
3983.000000	100.086111 
3982.000000	100.087740 
3981.000000	100.100624 
3980.000000	100.121751 
3979.000000	100.145943 
3978.000000	100.166902 
3977.000000	100.178798 
3976.000000	100.178536 
3975.000000	100.167507 
3974.000000	100.151235 
3973.000000	100.136498 
3972.000000	100.127382 
3971.000000	100.123196 
3970.000000	100.120039 
3969.000000	100.114935 
3968.000000	100.108855 
3967.000000	100.106067 
3966.000000	100.110750 
3965.000000	100.124036 
3964.000000	100.143402 
3963.000000	100.163764 
3962.000000	100.179191 
3961.000000	100.184840 
3960.000000	100.178630 
3959.000000	100.162379 
3958.000000	100.141767 
3957.000000	100.124413 
3956.000000	100.116533 
3955.000000	100.119942 
3954.000000	100.131671 
3953.000000	100.146290 
3952.000000	100.158919 
3951.000000	100.167050 
3950.000000	100.170518 
3949.000000	100.170442 
3948.000000	100.168547 
3947.000000	100.166799 
3946.000000	100.166504 
3945.000000	100.167024 
3944.000000	100.165665 
3943.000000	100.159817 
3942.000000	100.149570 
3941.000000	100.137957 
3940.000000	100.128631 
3939.000000	100.124245 
3938.000000	100.126491 
3937.000000	100.136323 
3936.000000	100.153165 
3935.000000	100.173690 
3934.000000	100.191870 
3933.000000	100.201120 
3932.000000	100.197816 
3931.000000	100.183731 
3930.000000	100.164839 
3929.000000	100.148331 
3928.000000	100.140103 
3927.000000	100.142363 
3926.000000	100.151874 
3925.000000	100.162001 
3924.000000	100.167963 
3923.000000	100.169752 
3922.000000	100.170530 
3921.000000	100.173779 
3920.000000	100.181529 
3919.000000	100.192827 
3918.000000	100.202958 
3917.000000	100.205734 
3916.000000	100.197589 
3915.000000	100.179819 
3914.000000	100.157317 
3913.000000	100.137039 
3912.000000	100.125772 
3911.000000	100.127039 
3910.000000	100.138925 
3909.000000	100.155835 
3908.000000	100.172782 
3907.000000	100.187646 
3906.000000	100.199111 
3905.000000	100.204007 
3904.000000	100.199069 
3903.000000	100.185194 
3902.000000	100.167667 
3901.000000	100.152053 
3900.000000	100.141844 
3899.000000	100.139159 
3898.000000	100.144415 
3897.000000	100.155330 
3896.000000	100.167885 
3895.000000	100.179284 
3894.000000	100.188857 
3893.000000	100.196241 
3892.000000	100.199797 
3891.000000	100.199732 
3890.000000	100.199001 
3889.000000	100.199010 
3888.000000	100.196436 
3887.000000	100.185025 
3886.000000	100.162699 
3885.000000	100.138341 
3884.000000	100.124726 
3883.000000	100.126507 
3882.000000	100.138804 
3881.000000	100.153390 
3880.000000	100.166054 
3879.000000	100.179068 
3878.000000	100.195078 
3877.000000	100.212003 
3876.000000	100.223243 
3875.000000	100.222010 
3874.000000	100.208715 
3873.000000	100.191843 
3872.000000	100.178258 
3871.000000	100.165572 
3870.000000	100.148295 
3869.000000	100.129541 
3868.000000	100.118368 
3867.000000	100.118957 
3866.000000	100.128974 
3865.000000	100.145246 
3864.000000	100.166036 
3863.000000	100.188880 
3862.000000	100.208231 
3861.000000	100.216889 
3860.000000	100.208845 
3859.000000	100.182178 
3858.000000	100.140585 
3857.000000	100.094346 
3856.000000	100.059109 
3855.000000	100.047731 
3854.000000	100.058810 
3853.000000	100.083295 
3852.000000	100.116007 
3851.000000	100.150440 
3850.000000	100.178092 
3849.000000	100.195367 
3848.000000	100.205480 
3847.000000	100.214015 
3846.000000	100.223184 
3845.000000	100.229587 
3844.000000	100.226278 
3843.000000	100.210066 
3842.000000	100.185749 
3841.000000	100.161903 
3840.000000	100.144612 
3839.000000	100.136582 
3838.000000	100.139307 
3837.000000	100.153792 
3836.000000	100.178241 
3835.000000	100.206966 
3834.000000	100.231585 
3833.000000	100.243488 
3832.000000	100.238508 
3831.000000	100.220921 
3830.000000	100.200650 
3829.000000	100.186502 
3828.000000	100.180627 
3827.000000	100.179102 
3826.000000	100.178147 
3825.000000	100.178807 
3824.000000	100.184415 
3823.000000	100.194507 
3822.000000	100.201733 
3821.000000	100.202251 
3820.000000	100.204619 
3819.000000	100.216446 
3818.000000	100.231769 
3817.000000	100.234610 
3816.000000	100.215733 
3815.000000	100.185987 
3814.000000	100.162736 
3813.000000	100.150494 
3812.000000	100.144035 
3811.000000	100.140390 
3810.000000	100.143200 
3809.000000	100.156669 
3808.000000	100.176724 
3807.000000	100.193403 
3806.000000	100.202841 
3805.000000	100.209154 
3804.000000	100.215439 
3803.000000	100.217355 
3802.000000	100.207075 
3801.000000	100.188346 
3800.000000	100.175610 
3799.000000	100.175055 
3798.000000	100.180346 
3797.000000	100.182538 
3796.000000	100.179700 
3795.000000	100.177594 
3794.000000	100.181955 
3793.000000	100.193111 
3792.000000	100.207753 
3791.000000	100.221985 
3790.000000	100.232509 
3789.000000	100.236722 
3788.000000	100.232548 
3787.000000	100.218765 
3786.000000	100.196512 
3785.000000	100.171580 
3784.000000	100.153846 
3783.000000	100.151738 
3782.000000	100.165848 
3781.000000	100.187821 
3780.000000	100.205900 
3779.000000	100.214455 
3778.000000	100.217132 
3777.000000	100.219041 
3776.000000	100.219654 
3775.000000	100.215198 
3774.000000	100.204699 
3773.000000	100.191148 
3772.000000	100.176959 
3771.000000	100.161676 
3770.000000	100.146010 
3769.000000	100.134989 
3768.000000	100.133495 
3767.000000	100.141025 
3766.000000	100.152962 
3765.000000	100.166383 
3764.000000	100.182389 
3763.000000	100.201862 
3762.000000	100.220621 
3761.000000	100.230681 
3760.000000	100.226232 
3759.000000	100.207875 
3758.000000	100.181061 
3757.000000	100.152086 
3756.000000	100.126377 
3755.000000	100.108791 
3754.000000	100.102944 
3753.000000	100.109290 
3752.000000	100.123151 
3751.000000	100.136365 
3750.000000	100.144596 
3749.000000	100.150271 
3748.000000	100.157745 
3747.000000	100.168333 
3746.000000	100.175815 
3745.000000	100.168207 
3744.000000	100.147617 
3743.000000	100.132559 
3742.000000	100.129569 
3741.000000	100.129047 
3740.000000	100.123337 
3739.000000	100.115727 
3738.000000	100.115624 
3737.000000	100.128369 
3736.000000	100.150733 
3735.000000	100.175484 
3734.000000	100.195704 
3733.000000	100.204135 
3732.000000	100.196016 
3731.000000	100.174348 
3730.000000	100.148604 
3729.000000	100.127729 
3728.000000	100.115677 
3727.000000	100.112778 
3726.000000	100.119351 
3725.000000	100.135038 
3724.000000	100.155285 
3723.000000	100.172926 
3722.000000	100.184098 
3721.000000	100.191004 
3720.000000	100.197874 
3719.000000	100.204688 
3718.000000	100.206516 
3717.000000	100.199037 
3716.000000	100.182387 
3715.000000	100.159968 
3714.000000	100.135363 
3713.000000	100.110913 
3712.000000	100.089751 
3711.000000	100.078584 
3710.000000	100.084191 
3709.000000	100.106273 
3708.000000	100.136610 
3707.000000	100.164808 
3706.000000	100.183290 
3705.000000	100.188410 
3704.000000	100.179238 
3703.000000	100.157546 
3702.000000	100.129572 
3701.000000	100.105626 
3700.000000	100.093960 
3699.000000	100.094743 
3698.000000	100.100555 
3697.000000	100.103115 
3696.000000	100.100523 
3695.000000	100.097723 
3694.000000	100.100913 
3693.000000	100.112762 
3692.000000	100.131225 
3691.000000	100.150014 
3690.000000	100.160497 
3689.000000	100.156573 
3688.000000	100.139219 
3687.000000	100.114043 
3686.000000	100.086180 
3685.000000	100.059987 
3684.000000	100.041252 
3683.000000	100.036221 
3682.000000	100.047257 
3681.000000	100.069995 
3680.000000	100.097074 
3679.000000	100.124118 
3678.000000	100.147061 
3677.000000	100.152975 
3676.000000	100.126488 
3675.000000	100.077816 
3674.000000	100.038300 
3673.000000	100.023768 
3672.000000	100.026210 
3671.000000	100.027047 
3670.000000	100.014277 
3669.000000	99.994565  
3668.000000	99.981475  
3667.000000	99.979828  
3666.000000	99.987792  
3665.000000	100.003688 
3664.000000	100.025941 
3663.000000	100.048885 
3662.000000	100.062585 
3661.000000	100.058686 
3660.000000	100.035889 
3659.000000	99.998805  
3658.000000	99.953683  
3657.000000	99.908004  
3656.000000	99.873969  
3655.000000	99.863724  
3654.000000	99.879271  
3653.000000	99.911230  
3652.000000	99.944280  
3651.000000	99.962574  
3650.000000	99.958332  
3649.000000	99.939449  
3648.000000	99.921582  
3647.000000	99.913829  
3646.000000	99.915043  
3645.000000	99.918170  
3644.000000	99.914830  
3643.000000	99.899638  
3642.000000	99.873731  
3641.000000	99.843909  
3640.000000	99.817372  
3639.000000	99.798418  
3638.000000	99.790267  
3637.000000	99.795577  
3636.000000	99.811717  
3635.000000	99.827329  
3634.000000	99.828941  
3633.000000	99.811723  
3632.000000	99.780919  
3631.000000	99.743161  
3630.000000	99.699179  
3629.000000	99.651711  
3628.000000	99.616218  
3627.000000	99.604488  
3626.000000	99.610088  
3625.000000	99.618371  
3624.000000	99.618956  
3623.000000	99.609708  
3622.000000	99.594957  
3621.000000	99.581876  
3620.000000	99.576930  
3619.000000	99.582134  
3618.000000	99.592685  
3617.000000	99.598271  
3616.000000	99.587268  
3615.000000	99.551837  
3614.000000	99.493759  
3613.000000	99.427599  
3612.000000	99.374228  
3611.000000	99.348437  
3610.000000	99.351142  
3609.000000	99.370909  
3608.000000	99.392014  
3607.000000	99.403241  
3606.000000	99.399922  
3605.000000	99.381294  
3604.000000	99.349978  
3603.000000	99.312572  
3602.000000	99.276629  
3601.000000	99.245609  
3600.000000	99.217967  
3599.000000	99.190761  
3598.000000	99.163630  
3597.000000	99.139089  
3596.000000	99.119462  
3595.000000	99.104496  
3594.000000	99.093207  
3593.000000	99.086236  
3592.000000	99.084961  
3591.000000	99.088036  
3590.000000	99.087693  
3589.000000	99.069894  
3588.000000	99.023939  
3587.000000	98.956535  
3586.000000	98.888544  
3585.000000	98.836294  
3584.000000	98.802714  
3583.000000	98.782740  
3582.000000	98.770258  
3581.000000	98.761547  
3580.000000	98.755101  
3579.000000	98.749127  
3578.000000	98.739669  
3577.000000	98.721935  
3576.000000	98.693703  
3575.000000	98.656498  
3574.000000	98.613530  
3573.000000	98.566743  
3572.000000	98.516599  
3571.000000	98.464188  
3570.000000	98.412180  
3569.000000	98.363184  
3568.000000	98.318496  
3567.000000	98.280217  
3566.000000	98.252672  
3565.000000	98.238220  
3564.000000	98.233164  
3563.000000	98.228840  
3562.000000	98.215544  
3561.000000	98.186472  
3560.000000	98.140222  
3559.000000	98.080558  
3558.000000	98.013937  
3557.000000	97.946982  
3556.000000	97.885099  
3555.000000	97.832015  
3554.000000	97.789723  
3553.000000	97.758802  
3552.000000	97.738128  
3551.000000	97.723870  
3550.000000	97.709351  
3549.000000	97.687171  
3548.000000	97.652672  
3547.000000	97.605919  
3546.000000	97.550397  
3545.000000	97.489603  
3544.000000	97.425049  
3543.000000	97.357589  
3542.000000	97.289790  
3541.000000	97.226193  
3540.000000	97.171115  
3539.000000	97.126162  
3538.000000	97.090175  
3537.000000	97.061439  
3536.000000	97.038897  
3535.000000	97.020051  
3534.000000	96.998454  
3533.000000	96.965372  
3532.000000	96.915389  
3531.000000	96.850261  
3530.000000	96.777198  
3529.000000	96.703647  
3528.000000	96.634121  
3527.000000	96.570490  
3526.000000	96.512836  
3525.000000	96.459377  
3524.000000	96.407287  
3523.000000	96.355408  
3522.000000	96.306021  
3521.000000	96.262883  
3520.000000	96.227172  
3519.000000	96.195567  
3518.000000	96.162165  
3517.000000	96.121809  
3516.000000	96.071381  
3515.000000	96.008848  
3514.000000	95.933414  
3513.000000	95.847864  
3512.000000	95.760483  
3511.000000	95.683584  
3510.000000	95.628252  
3509.000000	95.598466  
3508.000000	95.588694  
3507.000000	95.585854  
3506.000000	95.573703  
3505.000000	95.537998  
3504.000000	95.472513  
3503.000000	95.383424  
3502.000000	95.286463  
3501.000000	95.197301  
3500.000000	95.123211  
3499.000000	95.062117  
3498.000000	95.007462  
3497.000000	94.953863  
3496.000000	94.899910  
3495.000000	94.847446  
3494.000000	94.799382  
3493.000000	94.757539  
3492.000000	94.720671  
3491.000000	94.683624  
3490.000000	94.639004  
3489.000000	94.580930  
3488.000000	94.507817  
3487.000000	94.422149  
3486.000000	94.328819  
3485.000000	94.234365  
3484.000000	94.146729  
3483.000000	94.073531  
3482.000000	94.018773  
3481.000000	93.980450  
3480.000000	93.950946  
3479.000000	93.919866  
3478.000000	93.878185  
3477.000000	93.822080  
3476.000000	93.753858  
3475.000000	93.679038  
3474.000000	93.602217  
3473.000000	93.525484  
3472.000000	93.449187  
3471.000000	93.372509  
3470.000000	93.293955  
3469.000000	93.213572  
3468.000000	93.135602  
3467.000000	93.067619  
3466.000000	93.015623  
3465.000000	92.979836  
3464.000000	92.954632  
3463.000000	92.930868  
3462.000000	92.898106  
3461.000000	92.846988  
3460.000000	92.772663  
3459.000000	92.677584  
3458.000000	92.571242  
3457.000000	92.466793  
3456.000000	92.376545  
3455.000000	92.307923  
3454.000000	92.260819  
3453.000000	92.227993  
3452.000000	92.198911  
3451.000000	92.164672  
3450.000000	92.120510  
3449.000000	92.065498  
3448.000000	92.001742  
3447.000000	91.933589  
3446.000000	91.864660  
3445.000000	91.793852  
3444.000000	91.715773  
3443.000000	91.626915  
3442.000000	91.531168  
3441.000000	91.437974  
3440.000000	91.355525  
3439.000000	91.287653  
3438.000000	91.236010  
3437.000000	91.200846  
3436.000000	91.177236  
3435.000000	91.153222  
3434.000000	91.115288  
3433.000000	91.056578  
3432.000000	90.979180  
3431.000000	90.889757  
3430.000000	90.795577  
3429.000000	90.704232  
3428.000000	90.623154  
3427.000000	90.556079  
3426.000000	90.500150  
3425.000000	90.447750  
3424.000000	90.391717  
3423.000000	90.329646  
3422.000000	90.264980  
3421.000000	90.204478  
3420.000000	90.152925  
3419.000000	90.108440  
3418.000000	90.062645  
3417.000000	90.005750  
3416.000000	89.932021  
3415.000000	89.842029  
3414.000000	89.742199  
3413.000000	89.643031  
3412.000000	89.555755  
3411.000000	89.487830  
3410.000000	89.439726  
3409.000000	89.405040  
3408.000000	89.373230  
3407.000000	89.333556  
3406.000000	89.279361  
3405.000000	89.210688  
3404.000000	89.132809  
3403.000000	89.051589  
3402.000000	88.970540  
3401.000000	88.891872  
3400.000000	88.818055  
3399.000000	88.750332  
3398.000000	88.686495  
3397.000000	88.622323  
3396.000000	88.555942  
3395.000000	88.490073  
3394.000000	88.429804  
3393.000000	88.378622  
3392.000000	88.336024  
3391.000000	88.297427  
3390.000000	88.255474  
3389.000000	88.202184  
3388.000000	88.132027  
3387.000000	88.045210  
3386.000000	87.949184  
3385.000000	87.856255  
3384.000000	87.777934  
3383.000000	87.719921  
3382.000000	87.680922  
3381.000000	87.654446  
3380.000000	87.630988  
3379.000000	87.600777  
3378.000000	87.558215  
3377.000000	87.505153  
3376.000000	87.448671  
3375.000000	87.394358  
3374.000000	87.341966  
3373.000000	87.287346  
3372.000000	87.227299  
3371.000000	87.162221  
3370.000000	87.095568  
3369.000000	87.032022  
3368.000000	86.975509  
3367.000000	86.928084  
3366.000000	86.890704  
3365.000000	86.864552  
3364.000000	86.849542  
3363.000000	86.840337  
3362.000000	86.825488  
3361.000000	86.793249  
3360.000000	86.739505  
3359.000000	86.670319  
3358.000000	86.597475  
3357.000000	86.531726  
3356.000000	86.478751  
3355.000000	86.439292  
3354.000000	86.412037  
3353.000000	86.395747  
3352.000000	86.388031  
3351.000000	86.382957  
3350.000000	86.372586  
3349.000000	86.352721  
3348.000000	86.326208  
3347.000000	86.298979  
3346.000000	86.273235  
3345.000000	86.245842  
3344.000000	86.212709  
3343.000000	86.173275  
3342.000000	86.131231  
3341.000000	86.092948  
3340.000000	86.065477  
3339.000000	86.053779  
3338.000000	86.057775  
3337.000000	86.071759  
3336.000000	86.087133  
3335.000000	86.096106  
3334.000000	86.093879  
3333.000000	86.079370  
3332.000000	86.055191  
3331.000000	86.026321  
3330.000000	85.997609  
3329.000000	85.972147  
3328.000000	85.951836  
3327.000000	85.938501  
3326.000000	85.933301  
3325.000000	85.935077  
3324.000000	85.940265  
3323.000000	85.945287  
3322.000000	85.949229  
3321.000000	85.954142  
3320.000000	85.962584  
3319.000000	85.974321  
3318.000000	85.984874  
3317.000000	85.987478  
3316.000000	85.977580  
3315.000000	85.956770  
3314.000000	85.932865  
3313.000000	85.915703  
3312.000000	85.911850  
3311.000000	85.922252  
3310.000000	85.943866  
3309.000000	85.972835  
3308.000000	86.006204  
3307.000000	86.041357  
3306.000000	86.074608  
3305.000000	86.101036  
3304.000000	86.116564  
3303.000000	86.120932  
3302.000000	86.118585  
3301.000000	86.116127  
3300.000000	86.118627  
3299.000000	86.128095  
3298.000000	86.144328  
3297.000000	86.165758  
3296.000000	86.189742  
3295.000000	86.214180  
3294.000000	86.240398  
3293.000000	86.273391  
3292.000000	86.317117  
3291.000000	86.368786  
3290.000000	86.418462  
3289.000000	86.454837  
3288.000000	86.471878  
3287.000000	86.471379  
3286.000000	86.461283  
3285.000000	86.452537  
3284.000000	86.456274  
3283.000000	86.480990  
3282.000000	86.529402  
3281.000000	86.596277  
3280.000000	86.669683  
3279.000000	86.736495  
3278.000000	86.788904  
3277.000000	86.826958  
3276.000000	86.855792  
3275.000000	86.881155  
3274.000000	86.906986  
3273.000000	86.934982  
3272.000000	86.964681  
3271.000000	86.994421  
3270.000000	87.023579  
3269.000000	87.054118  
3268.000000	87.089689  
3267.000000	87.133886  
3266.000000	87.189746  
3265.000000	87.259243  
3264.000000	87.340665  
3263.000000	87.426125  
3262.000000	87.503550  
3261.000000	87.562756  
3260.000000	87.600349  
3259.000000	87.620358  
3258.000000	87.632293  
3257.000000	87.648547  
3256.000000	87.680415  
3255.000000	87.732963  
3254.000000	87.802396  
3253.000000	87.878936  
3252.000000	87.953047  
3251.000000	88.020189  
3250.000000	88.081691  
3249.000000	88.142432  
3248.000000	88.206908  
3247.000000	88.275635  
3246.000000	88.344309  
3245.000000	88.406597  
3244.000000	88.458285  
3243.000000	88.499473  
3242.000000	88.534098  
3241.000000	88.568552  
3240.000000	88.610518  
3239.000000	88.667396  
3238.000000	88.743737  
3237.000000	88.838499  
3236.000000	88.944073  
3235.000000	89.048529  
3234.000000	89.140373  
3233.000000	89.213023  
3232.000000	89.266535  
3231.000000	89.306445  
3230.000000	89.341328  
3229.000000	89.380153  
3228.000000	89.429564  
3227.000000	89.491792  
3226.000000	89.564654  
3225.000000	89.643883  
3224.000000	89.725874  
3223.000000	89.808854  
3222.000000	89.892375  
3221.000000	89.976258  
3220.000000	90.059759  
3219.000000	90.141193  
3218.000000	90.218057  
3217.000000	90.287486  
3216.000000	90.346942  
3215.000000	90.395426  
3214.000000	90.435324  
3213.000000	90.473688  
3212.000000	90.521015  
3211.000000	90.587040  
3210.000000	90.675557  
3209.000000	90.781560  
3208.000000	90.892765  
3207.000000	90.994682  
3206.000000	91.076504  
3205.000000	91.135501  
3204.000000	91.178447  
3203.000000	91.218723  
3202.000000	91.269153  
3201.000000	91.334201  
3200.000000	91.407680  
3199.000000	91.478799  
3198.000000	91.541574  
3197.000000	91.598871  
3196.000000	91.658309  
3195.000000	91.726063  
3194.000000	91.804748  
3193.000000	91.894167  
3192.000000	91.990709  
3191.000000	92.086263  
3190.000000	92.170791  
3189.000000	92.237847  
3188.000000	92.287423  
3187.000000	92.323897  
3186.000000	92.353264  
3185.000000	92.383048  
3184.000000	92.422505  
3183.000000	92.479880  
3182.000000	92.558070  
3181.000000	92.652329  
3180.000000	92.751351  
3179.000000	92.841478  
3178.000000	92.913442  
3177.000000	92.968230  
3176.000000	93.016218  
3175.000000	93.068600  
3174.000000	93.128735  
3173.000000	93.191393  
3172.000000	93.249050  
3171.000000	93.297928  
3170.000000	93.339547  
3169.000000	93.379383  
3168.000000	93.424754  
3167.000000	93.482006  
3166.000000	93.553882  
3165.000000	93.638808  
3164.000000	93.731565  
3163.000000	93.823504  
3162.000000	93.903357  
3161.000000	93.961447  
3160.000000	93.995746  
3159.000000	94.013766  
3158.000000	94.027949  
3157.000000	94.049296  
3156.000000	94.084379  
3155.000000	94.135406  
3154.000000	94.200588  
3153.000000	94.274465  
3152.000000	94.349371  
3151.000000	94.417978  
3150.000000	94.476069  
3149.000000	94.524848  
3148.000000	94.570720  
3147.000000	94.620442  
3146.000000	94.674394  
3145.000000	94.725065  
3144.000000	94.763590  
3143.000000	94.787898  
3142.000000	94.804455  
3141.000000	94.823515  
3140.000000	94.853824  
3139.000000	94.900162  
3138.000000	94.962720  
3137.000000	95.037230  
3136.000000	95.116231  
3135.000000	95.191014  
3134.000000	95.253350  
3133.000000	95.297566  
3132.000000	95.323350  
3131.000000	95.336846  
3130.000000	95.347666  
3129.000000	95.363870  
3128.000000	95.389200  
3127.000000	95.423548  
3126.000000	95.464392  
3125.000000	95.507982  
3124.000000	95.551284  
3123.000000	95.594316  
3122.000000	95.640247  
3121.000000	95.692159  
3120.000000	95.749187  
3119.000000	95.805482  
3118.000000	95.852779  
3117.000000	95.884638  
3116.000000	95.899717  
3115.000000	95.902324  
3114.000000	95.900471  
3113.000000	95.903176  
3112.000000	95.918156  
3111.000000	95.949854  
3110.000000	95.997908  
3109.000000	96.057156  
3108.000000	96.119452  
3107.000000	96.176072  
3106.000000	96.219907  
3105.000000	96.247965  
3104.000000	96.263251  
3103.000000	96.273041  
3102.000000	96.283623  
3101.000000	96.296747  
3100.000000	96.311703  
3099.000000	96.329076  
3098.000000	96.350179  
3097.000000	96.373633  
3096.000000	96.395916  
3095.000000	96.416708  
3094.000000	96.441569  
3093.000000	96.476928  
3092.000000	96.522532  
3091.000000	96.569640  
3090.000000	96.606394  
3089.000000	96.624726  
3088.000000	96.623514  
3087.000000	96.607675  
3086.000000	96.585839  
3085.000000	96.568406  
3084.000000	96.565477  
3083.000000	96.583463  
3082.000000	96.621290  
3081.000000	96.669661  
3080.000000	96.715577  
3079.000000	96.749324  
3078.000000	96.768506  
3077.000000	96.777015  
3076.000000	96.781214  
3075.000000	96.786392  
3074.000000	96.794571  
3073.000000	96.804037  
3072.000000	96.811067  
3071.000000	96.812898  
3070.000000	96.809592  
3069.000000	96.803749  
3068.000000	96.799224  
3067.000000	96.800073  
3066.000000	96.809624  
3065.000000	96.829381  
3064.000000	96.858012  
3063.000000	96.890633  
3062.000000	96.918762  
3061.000000	96.932234  
3060.000000	96.923960  
3059.000000	96.895082  
3058.000000	96.855931  
3057.000000	96.821159  
3056.000000	96.802302  
3055.000000	96.803025  
3054.000000	96.819452  
3053.000000	96.843879  
3052.000000	96.868710  
3051.000000	96.888557  
3050.000000	96.900519  
3049.000000	96.904029  
3048.000000	96.900871  
3047.000000	96.894317  
3046.000000	96.886855  
3045.000000	96.878186  
3044.000000	96.865587  
3043.000000	96.846239  
3042.000000	96.819448  
3041.000000	96.787963  
3040.000000	96.758517  
3039.000000	96.740451  
3038.000000	96.741170  
3037.000000	96.760598  
3036.000000	96.789662  
3035.000000	96.814797  
3034.000000	96.824643  
3033.000000	96.813916  
3032.000000	96.783458  
3031.000000	96.738871  
3030.000000	96.689078  
3029.000000	96.644013  
3028.000000	96.611250  
3027.000000	96.593103  
3026.000000	96.586132  
3025.000000	96.583518  
3024.000000	96.578656  
3023.000000	96.567658  
3022.000000	96.549927  
3021.000000	96.527521  
3020.000000	96.503676  
3019.000000	96.480155  
3018.000000	96.454597  
3017.000000	96.420702  
3016.000000	96.372314  
3015.000000	96.308083  
3014.000000	96.232771  
3013.000000	96.155049  
3012.000000	96.084242  
3011.000000	96.027315  
3010.000000	95.986023  
3009.000000	95.955448  
3008.000000	95.925448  
3007.000000	95.884393  
3006.000000	95.823039  
3005.000000	95.737539  
3004.000000	95.631407  
3003.000000	95.514559  
3002.000000	95.398195  
3001.000000	95.288391  
3000.000000	95.183558  
2999.000000	95.077429  
2998.000000	94.964450  
2997.000000	94.843878  
2996.000000	94.720865  
2995.000000	94.603835  
2994.000000	94.498960  
2993.000000	94.405900  
2992.000000	94.318948  
2991.000000	94.231869  
2990.000000	94.140342  
2989.000000	94.040619  
2988.000000	93.929549  
2987.000000	93.808779  
2986.000000	93.687965  
2985.000000	93.581375  
2984.000000	93.500350  
2983.000000	93.448333  
2982.000000	93.420917  
2981.000000	93.408286  
2980.000000	93.398570  
2979.000000	93.382321  
2978.000000	93.356394  
2977.000000	93.323984  
2976.000000	93.290820  
2975.000000	93.260915  
2974.000000	93.234304  
2973.000000	93.206781  
2972.000000	93.171629  
2971.000000	93.123393  
2970.000000	93.061504  
2969.000000	92.990646  
2968.000000	92.917825  
2967.000000	92.848997  
2966.000000	92.786999  
2965.000000	92.730067  
2964.000000	92.670857  
2963.000000	92.597710  
2962.000000	92.498889  
2961.000000	92.367668  
2960.000000	92.205206  
2959.000000	92.019854  
2958.000000	91.823382  
2957.000000	91.626296  
2956.000000	91.434937  
2955.000000	91.251433  
2954.000000	91.074808  
2953.000000	90.901778  
2952.000000	90.728348  
2951.000000	90.553340  
2950.000000	90.381406  
2949.000000	90.221883  
2948.000000	90.084230  
2947.000000	89.974412  
2946.000000	89.894461  
2945.000000	89.843649  
2944.000000	89.819612  
2943.000000	89.820043  
2942.000000	89.845221  
2941.000000	89.899434  
2940.000000	89.989367  
2939.000000	90.119449  
2938.000000	90.286424  
2937.000000	90.477007  
2936.000000	90.671657  
2935.000000	90.852695  
2934.000000	91.010286  
2933.000000	91.142164  
2932.000000	91.250612  
2931.000000	91.341403  
2930.000000	91.423603  
2929.000000	91.505992  
2928.000000	91.591034  
2927.000000	91.672796  
2926.000000	91.741734  
2925.000000	91.792077  
2924.000000	91.825664  
2923.000000	91.850161  
2922.000000	91.873734  
2921.000000	91.899815  
2920.000000	91.925832  
2919.000000	91.946630  
2918.000000	91.958926  
2917.000000	91.962706  
2916.000000	91.960335  
2915.000000	91.956846  
2914.000000	91.961300  
2913.000000	91.985785  
2912.000000	92.040867  
2911.000000	92.130881  
2910.000000	92.252150  
2909.000000	92.394320  
2908.000000	92.544021  
2907.000000	92.689470  
2906.000000	92.823503  
2905.000000	92.943396  
2904.000000	93.049378  
2903.000000	93.144817  
2902.000000	93.236345  
2901.000000	93.330609  
2900.000000	93.429276  
2899.000000	93.528422  
2898.000000	93.623780  
2897.000000	93.715444  
2896.000000	93.807006  
2895.000000	93.901672  
2894.000000	94.000335  
2893.000000	94.101781  
2892.000000	94.202704  
2891.000000	94.297805  
2890.000000	94.381418  
2889.000000	94.449646  
2888.000000	94.501243  
2887.000000	94.538181  
2886.000000	94.566859  
2885.000000	94.597616  
2884.000000	94.640390  
2883.000000	94.699466  
2882.000000	94.772355  
2881.000000	94.852691  
2880.000000	94.932735  
2879.000000	95.004349  
2878.000000	95.061043  
2877.000000	95.101635  
2876.000000	95.131480  
2875.000000	95.158812  
2874.000000	95.189243  
2873.000000	95.222722  
2872.000000	95.254367  
2871.000000	95.278224  
2870.000000	95.292358  
2869.000000	95.302007  
2868.000000	95.317026  
2867.000000	95.344782  
2866.000000	95.385046  
2865.000000	95.431588  
2864.000000	95.477214  
2863.000000	95.516156  
2862.000000	95.543250  
2861.000000	95.553911  
2860.000000	95.546342  
2859.000000	95.523010  
2858.000000	95.489565  
2857.000000	95.452507  
2856.000000	95.416826  
2855.000000	95.383331  
2854.000000	95.346778  
2853.000000	95.297168  
2852.000000	95.223952  
2851.000000	95.119796  
2850.000000	94.981569  
2849.000000	94.809910  
2848.000000	94.608627  
2847.000000	94.382672  
2846.000000	94.134079  
2845.000000	93.859157  
2844.000000	93.550849  
2843.000000	93.205352  
2842.000000	92.827386  
2841.000000	92.429926  
2840.000000	92.029706  
2839.000000	91.642770  
2838.000000	91.282591  
2837.000000	90.959706  
2836.000000	90.681806  
2835.000000	90.454365  
2834.000000	90.281896  
2833.000000	90.168859  
2832.000000	90.119289  
2831.000000	90.135908  
2830.000000	90.219494  
2829.000000	90.368221  
2828.000000	90.576321  
2827.000000	90.832586  
2826.000000	91.120481  
2825.000000	91.421691  
2824.000000	91.721712  
2823.000000	92.013579  
2822.000000	92.296504  
2821.000000	92.571305  
2820.000000	92.837169  
2819.000000	93.091432  
2818.000000	93.330356  
2817.000000	93.549541  
2816.000000	93.745347  
2815.000000	93.917836  
2814.000000	94.072706  
2813.000000	94.219776  
2812.000000	94.368828  
2811.000000	94.525934  
2810.000000	94.691664  
2809.000000	94.861040  
2808.000000	95.024934  
2807.000000	95.173155  
2806.000000	95.298606  
2805.000000	95.400439  
2804.000000	95.484396  
2803.000000	95.560020  
2802.000000	95.636510  
2801.000000	95.719601  
2800.000000	95.810578  
2799.000000	95.906861  
2798.000000	96.003483  
2797.000000	96.095635  
2796.000000	96.181903  
2795.000000	96.265808  
2794.000000	96.353459  
2793.000000	96.448577  
2792.000000	96.549147  
2791.000000	96.648171  
2790.000000	96.737026  
2789.000000	96.808593  
2788.000000	96.859760  
2787.000000	96.893816  
2786.000000	96.921315  
2785.000000	96.956880  
2784.000000	97.012146  
2783.000000	97.089904  
2782.000000	97.183833  
2781.000000	97.283233  
2780.000000	97.377919  
2779.000000	97.460218  
2778.000000	97.525851  
2777.000000	97.575628  
2776.000000	97.616367  
2775.000000	97.657669  
2774.000000	97.705611  
2773.000000	97.758981  
2772.000000	97.811504  
2771.000000	97.857496  
2770.000000	97.895756  
2769.000000	97.929989  
2768.000000	97.967207  
2767.000000	98.015122  
2766.000000	98.078501  
2765.000000	98.155669  
2764.000000	98.238050  
2763.000000	98.313663  
2762.000000	98.372359  
2761.000000	98.409537  
2760.000000	98.427095  
2759.000000	98.432284  
2758.000000	98.435437  
2757.000000	98.447207  
2756.000000	98.475498  
2755.000000	98.522425  
2754.000000	98.582638  
2753.000000	98.645002  
2752.000000	98.698158  
2751.000000	98.737030  
2750.000000	98.765136  
2749.000000	98.790862  
2748.000000	98.820878  
2747.000000	98.855906  
2746.000000	98.891033  
2745.000000	98.919080  
2744.000000	98.934906  
2743.000000	98.938895  
2742.000000	98.937741  
2741.000000	98.941273  
2740.000000	98.957211  
2739.000000	98.988177  
2738.000000	99.032699  
2737.000000	99.086990  
2736.000000	99.144377  
2735.000000	99.194375  
2734.000000	99.225761  
2733.000000	99.233195  
2732.000000	99.221499  
2731.000000	99.203226  
2730.000000	99.191769  
2729.000000	99.195046  
2728.000000	99.212816  
2727.000000	99.238246  
2726.000000	99.262950  
2725.000000	99.282499  
2724.000000	99.298152  
2723.000000	99.313799  
2722.000000	99.332291  
2721.000000	99.354851  
2720.000000	99.381760  
2719.000000	99.410882  
2718.000000	99.435654  
2717.000000	99.447180  
2716.000000	99.440421  
2715.000000	99.418609  
2714.000000	99.391789  
2713.000000	99.371863  
2712.000000	99.368335  
2711.000000	99.385703  
2710.000000	99.421610  
2709.000000	99.466797  
2708.000000	99.508510  
2707.000000	99.536274  
2706.000000	99.546205  
2705.000000	99.541462  
2704.000000	99.529540  
2703.000000	99.518625  
2702.000000	99.514310  
2701.000000	99.517238  
2700.000000	99.523009  
2699.000000	99.525613  
2698.000000	99.522842  
2697.000000	99.518976  
2696.000000	99.521564  
2695.000000	99.535219  
2694.000000	99.558796  
2693.000000	99.587805  
2692.000000	99.617381  
2691.000000	99.641971  
2690.000000	99.654432  
2689.000000	99.648939  
2688.000000	99.625905  
2687.000000	99.593069  
2686.000000	99.561344  
2685.000000	99.539973  
2684.000000	99.534482  
2683.000000	99.546134  
2682.000000	99.571336  
2681.000000	99.602421  
2680.000000	99.630905  
2679.000000	99.650979  
2678.000000	99.660545  
2677.000000	99.660543  
2676.000000	99.654385  
2675.000000	99.646818  
2674.000000	99.640984  
2673.000000	99.635769  
2672.000000	99.627147  
2671.000000	99.613083  
2670.000000	99.596781  
2669.000000	99.584751  
2668.000000	99.582278  
2667.000000	99.591313  
2666.000000	99.611453  
2665.000000	99.640359  
2664.000000	99.671982  
2663.000000	99.696022  
2662.000000	99.702108  
2661.000000	99.686331  
2660.000000	99.654001  
2659.000000	99.616158  
2658.000000	99.583607  
2657.000000	99.563237  
2656.000000	99.557398  
2655.000000	99.564539  
2654.000000	99.580246  
2653.000000	99.598792  
2652.000000	99.614796  
2651.000000	99.624521  
2650.000000	99.626930  
2649.000000	99.624095  
2648.000000	99.619773  
2647.000000	99.616395  
2646.000000	99.613040  
2645.000000	99.606236  
2644.000000	99.592484  
2643.000000	99.570559  
2642.000000	99.543093  
2641.000000	99.516949  
2640.000000	99.500938  
2639.000000	99.501348  
2638.000000	99.518793  
2637.000000	99.548442  
2636.000000	99.581598  
2635.000000	99.606842  
2634.000000	99.612938  
2633.000000	99.594818  
2632.000000	99.557934  
2631.000000	99.515266  
2630.000000	99.479138  
2629.000000	99.455550  
2628.000000	99.444457  
2627.000000	99.442774  
2626.000000	99.446621  
2625.000000	99.452733  
2624.000000	99.459396  
2623.000000	99.466179  
2622.000000	99.472930  
2621.000000	99.479413  
2620.000000	99.485098  
2619.000000	99.487776  
2618.000000	99.482520  
2617.000000	99.463701  
2616.000000	99.429069  
2615.000000	99.382020  
2614.000000	99.330840  
2613.000000	99.286784  
2612.000000	99.261383  
2611.000000	99.262180  
2610.000000	99.288774  
2609.000000	99.332508  
2608.000000	99.379619  
2607.000000	99.414902  
2606.000000	99.425437  
2605.000000	99.405748  
2604.000000	99.361918  
2603.000000	99.309503  
2602.000000	99.265424  
2601.000000	99.240101  
2600.000000	99.234374  
2599.000000	99.240771  
2598.000000	99.247983  
2597.000000	99.248081  
2596.000000	99.242661  
2595.000000	99.241958  
2594.000000	99.256707  
2593.000000	99.289779  
2592.000000	99.333660  
2591.000000	99.373596  
2590.000000	99.393721  
2589.000000	99.384228  
2588.000000	99.346360  
2587.000000	99.291585  
2586.000000	99.236329  
2585.000000	99.197377  
2584.000000	99.188677  
2583.000000	99.216065  
2582.000000	99.271441  
2581.000000	99.334137  
2580.000000	99.381938  
2579.000000	99.402848  
2578.000000	99.398160  
2577.000000	99.377838  
2576.000000	99.354645  
2575.000000	99.338965  
2574.000000	99.333650  
2573.000000	99.332127  
2572.000000	99.323694  
2571.000000	99.302707  
2570.000000	99.273298  
2569.000000	99.246380  
2568.000000	99.233578  
2567.000000	99.243362  
2566.000000	99.279312  
2565.000000	99.337582  
2564.000000	99.403945  
2563.000000	99.455225  
2562.000000	99.468423  
2561.000000	99.433521  
2560.000000	99.360314  
2559.000000	99.273713  
2558.000000	99.202147  
2557.000000	99.167286  
2556.000000	99.177697  
2555.000000	99.225560  
2554.000000	99.288742  
2553.000000	99.340973  
2552.000000	99.365287  
2551.000000	99.360590  
2550.000000	99.337867  
2549.000000	99.312085  
2548.000000	99.295378  
2547.000000	99.291839  
2546.000000	99.294892  
2545.000000	99.290843  
2544.000000	99.267870  
2543.000000	99.223467  
2542.000000	99.165819  
2541.000000	99.111415  
2540.000000	99.080706  
2539.000000	99.089893  
2538.000000	99.140567  
2537.000000	99.215629  
2536.000000	99.286732  
2535.000000	99.327630  
2534.000000	99.324096  
2533.000000	99.277592  
2532.000000	99.204095  
2531.000000	99.127775  
2530.000000	99.070712  
2529.000000	99.044513  
2528.000000	99.048554  
2527.000000	99.073170  
2526.000000	99.104249  
2525.000000	99.128982  
2524.000000	99.142096  
2523.000000	99.147786  
2522.000000	99.154940  
2521.000000	99.170725  
2520.000000	99.197273  
2519.000000	99.229326  
2518.000000	99.251715  
2517.000000	99.243638  
2516.000000	99.193575  
2515.000000	99.112893  
2514.000000	99.032231  
2513.000000	98.983147  
2512.000000	98.982977  
2511.000000	99.032416  
2510.000000	99.118576  
2509.000000	99.216708  
2508.000000	99.295936  
2507.000000	99.333188  
2506.000000	99.325600  
2505.000000	99.289310  
2504.000000	99.246750  
2503.000000	99.214949  
2502.000000	99.201596  
2501.000000	99.205765  
2500.000000	99.219997  
2499.000000	99.234585  
2498.000000	99.243427  
2497.000000	99.247770  
2496.000000	99.255771  
2495.000000	99.278885  
2494.000000	99.325930  
2493.000000	99.395616  
2492.000000	99.472305  
2491.000000	99.530902  
2490.000000	99.549545  
2489.000000	99.521096  
2488.000000	99.456313  
2487.000000	99.379166  
2486.000000	99.317893  
2485.000000	99.294229  
2484.000000	99.315004  
2483.000000	99.371970  
2482.000000	99.449176  
2481.000000	99.529401  
2480.000000	99.595520  
2479.000000	99.633098  
2478.000000	99.638378  
2477.000000	99.622852  
2476.000000	99.604457  
2475.000000	99.592619  
2474.000000	99.584047  
2473.000000	99.571753  
2472.000000	99.553387  
2471.000000	99.530762  
2470.000000	99.507849  
2469.000000	99.493187  
2468.000000	99.500016  
2467.000000	99.538333  
2466.000000	99.606052  
2465.000000	99.688538  
2464.000000	99.764702  
2463.000000	99.812981  
2462.000000	99.817483  
2461.000000	99.776254  
2460.000000	99.705268  
2459.000000	99.630940  
2458.000000	99.576321  
2457.000000	99.553045  
2456.000000	99.562017  
2455.000000	99.596396  
2454.000000	99.643588  
2453.000000	99.688846  
2452.000000	99.721162  
2451.000000	99.737597  
2450.000000	99.743197  
2449.000000	99.747123  
2448.000000	99.756186  
2447.000000	99.768705  
2446.000000	99.774202  
2445.000000	99.760923  
2444.000000	99.725020  
2443.000000	99.673885  
2442.000000	99.623450  
2441.000000	99.592844  
2440.000000	99.596883  
2439.000000	99.638008  
2438.000000	99.704284  
2437.000000	99.776400  
2436.000000	99.836331  
2435.000000	99.870364  
2434.000000	99.869891  
2433.000000	99.835949  
2432.000000	99.782469  
2431.000000	99.729876  
2430.000000	99.693585  
2429.000000	99.679349  
2428.000000	99.686767  
2427.000000	99.712036  
2426.000000	99.747283  
2425.000000	99.782499  
2424.000000	99.811403  
2423.000000	99.834573  
2422.000000	99.856590  
2421.000000	99.881293  
2420.000000	99.908157  
2419.000000	99.929900  
2418.000000	99.934290  
2417.000000	99.912619  
2416.000000	99.868066  
2415.000000	99.814198  
2414.000000	99.766342  
2413.000000	99.737224  
2412.000000	99.738159  
2411.000000	99.776246  
2410.000000	99.846059  
2409.000000	99.927336  
2408.000000	99.994995  
2407.000000	100.031906 
2406.000000	100.033129 
2405.000000	100.003502 
2404.000000	99.955610  
2403.000000	99.907599  
2402.000000	99.876675  
2401.000000	99.870552  
2400.000000	99.883902  
2399.000000	99.903176  
2398.000000	99.916332  
2397.000000	99.920505  
2396.000000	99.922350  
2395.000000	99.931751  
2394.000000	99.955149  
2393.000000	99.992983  
2392.000000	100.039019 
2391.000000	100.079364 
2390.000000	100.095685 
2389.000000	100.076032 
2388.000000	100.024943 
2387.000000	99.960757  
2386.000000	99.902466  
2385.000000	99.860805  
2384.000000	99.839850  
2383.000000	99.840606  
2382.000000	99.858766  
2381.000000	99.881686  
2380.000000	99.893332  
2379.000000	99.884950  
2378.000000	99.860775  
2377.000000	99.834742  
2376.000000	99.822706  
2375.000000	99.832947  
2374.000000	99.858265  
2373.000000	99.876338  
2372.000000	99.862145  
2371.000000	99.803891  
2370.000000	99.709602  
2369.000000	99.605096  
2368.000000	99.531138  
2367.000000	99.534637  
2366.000000	99.645471  
2365.000000	99.850124  
2364.000000	100.088132 
2363.000000	100.273860 
2362.000000	100.325254 
2361.000000	100.200413 
2360.000000	99.933856  
2359.000000	99.635733  
2358.000000	99.435872  
2357.000000	99.404267  
2356.000000	99.523807  
2355.000000	99.715052  
2354.000000	99.887939  
2353.000000	99.985535  
2352.000000	99.993472  
2351.000000	99.940705  
2350.000000	99.874284  
2349.000000	99.828311  
2348.000000	99.817105  
2347.000000	99.847596  
2346.000000	99.926085  
2345.000000	100.012678 
2344.000000	100.033196 
2343.000000	99.953132  
2342.000000	99.804238  
2341.000000	99.661973  
2340.000000	99.603326  
2339.000000	99.671016  
2338.000000	99.845252  
2337.000000	100.058226 
2336.000000	100.231687 
2335.000000	100.312044 
2334.000000	100.274953 
2333.000000	100.133698 
2332.000000	99.939507  
2331.000000	99.771619  
2330.000000	99.690027  
2329.000000	99.705877  
2328.000000	99.791141  
2327.000000	99.900316  
2326.000000	99.994783  
2325.000000	100.047560 
2324.000000	100.057711 
2323.000000	100.048430 
2322.000000	100.050183 
2321.000000	100.082874 
2320.000000	100.140916 
2319.000000	100.198989 
2318.000000	100.217909 
2317.000000	100.169187 
2316.000000	100.052112 
2315.000000	99.901059  
2314.000000	99.768138  
2313.000000	99.700473  
2312.000000	99.720275  
2311.000000	99.817435  
2310.000000	99.955091  
2309.000000	100.085025 
2308.000000	100.168593 
2307.000000	100.189181 
2306.000000	100.153443 
2305.000000	100.084187 
2304.000000	100.011298 
2303.000000	99.961842  
2302.000000	99.949296  
2301.000000	99.969161  
2300.000000	100.002586 
2299.000000	100.027618 
2298.000000	100.030510 
2297.000000	100.013971 
2296.000000	99.997742  
2295.000000	100.005977 
2294.000000	100.050802 
2293.000000	100.123114 
2292.000000	100.198733 
2291.000000	100.247606 
2290.000000	100.243270 
2289.000000	100.173345 
2288.000000	100.051497 
2287.000000	99.915835  
2286.000000	99.810895  
2285.000000	99.766664  
2284.000000	99.790744  
2283.000000	99.871263  
2282.000000	99.980329  
2281.000000	100.079306 
2280.000000	100.133180 
2279.000000	100.129343 
2278.000000	100.082860 
2277.000000	100.024496 
2276.000000	99.981852  
2275.000000	99.966922  
2274.000000	99.973452  
2273.000000	99.981999  
2272.000000	99.969849  
2271.000000	99.923110  
2270.000000	99.848331  
2269.000000	99.777755  
2268.000000	99.758345  
2267.000000	99.823056  
2266.000000	99.963402  
2265.000000	100.128586 
2264.000000	100.254471 
2263.000000	100.295852 
2262.000000	100.239594 
2261.000000	100.102249 
2260.000000	99.923776  
2259.000000	99.756060  
2258.000000	99.644946  
2257.000000	99.614879  
2256.000000	99.664096  
2255.000000	99.768348  
2254.000000	99.887058  
2253.000000	99.976943  
2252.000000	100.014372 
2251.000000	100.009262 
2250.000000	99.992846  
2249.000000	99.989930  
2248.000000	100.001782 
2247.000000	100.011258 
2246.000000	99.997517  
2245.000000	99.945358  
2244.000000	99.850803  
2243.000000	99.727596  
2242.000000	99.610546  
2241.000000	99.545620  
2240.000000	99.566900  
2239.000000	99.676330  
2238.000000	99.842120  
2237.000000	100.014123 
2236.000000	100.142376 
2235.000000	100.189449 
2234.000000	100.140096 
2233.000000	100.011710 
2232.000000	99.852618  
2231.000000	99.717858  
2230.000000	99.640015  
2229.000000	99.621676  
2228.000000	99.649758  
2227.000000	99.708465  
2226.000000	99.779301  
2225.000000	99.842671  
2224.000000	99.891131  
2223.000000	99.937556  
2222.000000	100.000928 
2221.000000	100.081809 
2220.000000	100.154139 
2219.000000	100.180596 
2218.000000	100.135358 
2217.000000	100.017579 
2216.000000	99.850929  
2215.000000	99.674860  
2214.000000	99.536793  
2213.000000	99.484223  
2212.000000	99.547375  
2211.000000	99.716927  
2210.000000	99.938835  
2209.000000	100.139767 
2208.000000	100.265049 
2207.000000	100.294862 
2206.000000	100.234546 
2205.000000	100.106750 
2204.000000	99.952983  
2203.000000	99.823065  
2202.000000	99.748485  
2201.000000	99.726183  
2200.000000	99.730796  
2199.000000	99.739153  
2198.000000	99.742672  
2197.000000	99.747266  
2196.000000	99.770563  
2195.000000	99.833535  
2194.000000	99.943906  
2193.000000	100.083990 
2192.000000	100.215201 
2191.000000	100.292262 
2190.000000	100.275998 
2189.000000	100.148751 
2188.000000	99.931781  
2187.000000	99.685903  
2186.000000	99.488213  
2185.000000	99.401943  
2184.000000	99.455830  
2183.000000	99.634857  
2182.000000	99.880767  
2181.000000	100.111397 
2180.000000	100.260731 
2179.000000	100.309206 
2178.000000	100.277984 
2177.000000	100.203360 
2176.000000	100.117572 
2175.000000	100.040301 
2174.000000	99.976285  
2173.000000	99.920323  
2172.000000	99.867417  
2171.000000	99.816544  
2170.000000	99.766312  
2169.000000	99.718954  
2168.000000	99.698508  
2167.000000	99.756685  
2166.000000	99.939169  
2165.000000	100.229880 
2164.000000	100.530633 
2163.000000	100.707658 
2162.000000	100.668527 
2161.000000	100.415139 
2160.000000	100.044085 
2159.000000	99.692489  
2158.000000	99.467631  
2157.000000	99.413363  
2156.000000	99.520815  
2155.000000	99.746341  
2154.000000	100.017112 
2153.000000	100.246434 
2152.000000	100.371420 
2151.000000	100.382041 
2150.000000	100.314221 
2149.000000	100.220495 
2148.000000	100.142558 
2147.000000	100.096371 
2146.000000	100.071188 
2145.000000	100.040153 
2144.000000	99.977534  
2143.000000	99.875351  
2142.000000	99.754047  
2141.000000	99.661706  
2140.000000	99.654436  
2139.000000	99.763979  
2138.000000	99.974771  
2137.000000	100.226091 
2136.000000	100.435522 
2135.000000	100.529115 
2134.000000	100.470351 
2133.000000	100.282730 
2132.000000	100.045093 
2131.000000	99.849581  
2130.000000	99.753226  
2129.000000	99.760154  
2128.000000	99.836774  
2127.000000	99.935934  
2126.000000	100.014020 
2125.000000	100.046233 
2124.000000	100.039719 
2123.000000	100.027402 
2122.000000	100.040739 
2121.000000	100.086781 
2120.000000	100.148482 
2119.000000	100.197628 
2118.000000	100.203464 
2117.000000	100.141090 
2116.000000	100.008106 
2115.000000	99.837217  
2114.000000	99.687564  
2113.000000	99.618221  
2112.000000	99.662589  
2111.000000	99.815824  
2110.000000	100.033879 
2109.000000	100.244520 
2108.000000	100.375189 
2107.000000	100.386427 
2106.000000	100.287594 
2105.000000	100.127073 
2104.000000	99.967761  
2103.000000	99.862154  
2102.000000	99.834631  
2101.000000	99.872976  
2100.000000	99.934821  
2099.000000	99.972708  
2098.000000	99.965320  
2097.000000	99.932010  
2096.000000	99.916862  
2095.000000	99.954141  
2094.000000	100.045195 
2093.000000	100.162172 
2092.000000	100.265446 
2091.000000	100.315574 
2090.000000	100.280397 
2089.000000	100.148942 
2088.000000	99.946233  
2087.000000	99.730681  
2086.000000	99.571889  
2085.000000	99.522323  
2084.000000	99.595697  
2083.000000	99.761078  
2082.000000	99.955033  
2081.000000	100.107710 
2080.000000	100.171935 
2079.000000	100.139337 
2078.000000	100.038451 
2077.000000	99.921210  
2076.000000	99.838949  
2075.000000	99.813630  
2074.000000	99.825601  
2073.000000	99.831357  
2072.000000	99.796726  
2071.000000	99.716425  
2070.000000	99.612219  
2069.000000	99.525280  
2068.000000	99.505542  
2067.000000	99.588192  
2066.000000	99.764879  
2065.000000	99.976784  
2064.000000	100.143356 
2063.000000	100.200373 
2062.000000	100.117635 
2061.000000	99.905371  
2060.000000	99.620133  
2059.000000	99.352659  
2058.000000	99.189592  
2057.000000	99.173147  
2056.000000	99.286578  
2055.000000	99.468378  
2054.000000	99.640326  
2053.000000	99.740535  
2052.000000	99.752990  
2051.000000	99.712485  
2050.000000	99.676807  
2049.000000	99.684944  
2048.000000	99.731698  
2047.000000	99.775265  
2046.000000	99.762735  
2045.000000	99.655865  
2044.000000	99.455002  
2043.000000	99.210967  
2042.000000	99.011479  
2041.000000	98.944460  
2040.000000	99.057553  
2039.000000	99.339041  
2038.000000	99.721296  
2037.000000	100.094563 
2036.000000	100.338362 
2035.000000	100.369160 
2034.000000	100.178557 
2033.000000	99.842438  
2032.000000	99.490155  
2031.000000	99.244655  
2030.000000	99.172023  
2029.000000	99.261791  
2028.000000	99.442033  
2027.000000	99.624046  
2026.000000	99.749667  
2025.000000	99.815342  
2024.000000	99.862293  
2023.000000	99.939128  
2022.000000	100.065242 
2021.000000	100.220410 
2020.000000	100.356687 
2019.000000	100.413935 
2018.000000	100.338281 
2017.000000	100.118463 
2016.000000	99.815016  
2015.000000	99.535818  
2014.000000	99.377082  
2013.000000	99.383455  
2012.000000	99.543246  
2011.000000	99.804500  
2010.000000	100.093420 
2009.000000	100.332853 
2008.000000	100.466346 
2007.000000	100.472815 
2006.000000	100.362845 
2005.000000	100.174052 
2004.000000	99.967843  
2003.000000	99.809773  
2002.000000	99.736265  
2001.000000	99.736064  
2000.000000	99.765979  
1999.000000	99.788789  
1998.000000	99.798523  
1997.000000	99.816424  
1996.000000	99.871776  
1995.000000	99.984196  
1994.000000	100.150409 
1993.000000	100.334044 
1992.000000	100.471525 
1991.000000	100.502813 
1990.000000	100.404691 
1989.000000	100.200715 
1988.000000	99.947957  
1987.000000	99.714432  
1986.000000	99.560444  
1985.000000	99.526968  
1984.000000	99.625522  
1983.000000	99.831411  
1982.000000	100.089047 
1981.000000	100.330745 
1980.000000	100.497205 
1979.000000	100.551285 
1978.000000	100.491328 
1977.000000	100.361202 
1976.000000	100.229691 
1975.000000	100.140753 
1974.000000	100.085950 
1973.000000	100.026325 
1972.000000	99.934853  
1971.000000	99.818874  
1970.000000	99.716150  
1969.000000	99.680789  
1968.000000	99.759981  
1967.000000	99.959928  
1966.000000	100.227790 
1965.000000	100.477626 
1964.000000	100.637187 
1963.000000	100.668214 
1962.000000	100.562237 
1961.000000	100.343045 
1960.000000	100.071026 
1959.000000	99.825906  
1958.000000	99.675370  
1957.000000	99.653759  
1956.000000	99.756906  
1955.000000	99.944837  
1954.000000	100.151203 
1953.000000	100.307484 
1952.000000	100.375211 
1951.000000	100.359867 
1950.000000	100.297702 
1949.000000	100.232421 
1948.000000	100.193044 
1947.000000	100.178832 
1946.000000	100.161853 
1945.000000	100.109906 
1944.000000	100.012548 
1943.000000	99.890050  
1942.000000	99.783321  
1941.000000	99.735469  
1940.000000	99.776389  
1939.000000	99.911762  
1938.000000	100.113008 
1937.000000	100.319890 
1936.000000	100.466354 
1935.000000	100.508848 
1934.000000	100.437058 
1933.000000	100.274873 
1932.000000	100.075598 
1931.000000	99.903286  
1930.000000	99.807479  
1929.000000	99.807000  
1928.000000	99.884112  
1927.000000	99.992974  
1926.000000	100.083243 
1925.000000	100.128951 
1924.000000	100.141011 
1923.000000	100.146752 
1922.000000	100.160039 
1921.000000	100.179024 
1920.000000	100.202255 
1919.000000	100.225302 
1918.000000	100.223279 
1917.000000	100.162799 
1916.000000	100.039888 
1915.000000	99.890039  
1914.000000	99.766415  
1913.000000	99.716235  
1912.000000	99.764726  
1911.000000	99.906443  
1910.000000	100.101417 
1909.000000	100.284522 
1908.000000	100.395511 
1907.000000	100.407050 
1906.000000	100.326075 
1905.000000	100.185405 
1904.000000	100.036412 
1903.000000	99.929073  
1902.000000	99.888299  
1901.000000	99.905382  
1900.000000	99.949218  
1899.000000	99.987101  
1898.000000	99.999527  
1897.000000	99.987938  
1896.000000	99.976589  
1895.000000	99.997433  
1894.000000	100.064167 
1893.000000	100.161555 
1892.000000	100.257576 
1891.000000	100.316055 
1890.000000	100.302599 
1889.000000	100.202349 
1888.000000	100.039714 
1887.000000	99.869419  
1886.000000	99.750178  
1885.000000	99.723536  
1884.000000	99.796975  
1883.000000	99.938124  
1882.000000	100.088561 
1881.000000	100.190797 
1880.000000	100.215336 
1879.000000	100.171216 
1878.000000	100.093355 
1877.000000	100.020876 
1876.000000	99.980695  
1875.000000	99.978287  
1874.000000	99.996546  
1873.000000	100.007619 
1872.000000	99.992373  
1871.000000	99.950567  
1870.000000	99.897610  
1869.000000	99.860292  
1868.000000	99.866743  
1867.000000	99.928315  
1866.000000	100.033599 
1865.000000	100.153081 
1864.000000	100.245984 
1863.000000	100.273776 
1862.000000	100.217114 
1861.000000	100.088812 
1860.000000	99.932987  
1859.000000	99.805498  
1858.000000	99.749051  
1857.000000	99.776484  
1856.000000	99.866437  
1855.000000	99.975691  
1854.000000	100.060198 
1853.000000	100.094771 
1852.000000	100.081098 
1851.000000	100.041318 
1850.000000	100.004747 
1849.000000	99.993088  
1848.000000	100.010564 
1847.000000	100.042834 
1846.000000	100.064448 
1845.000000	100.045209 
1844.000000	99.971621  
1843.000000	99.871545  
1842.000000	99.791825  
1841.000000	99.764128  
1840.000000	99.803184  
1839.000000	99.906670  
1838.000000	100.044558 
1837.000000	100.165448 
1836.000000	100.223037 
1835.000000	100.198454 
1834.000000	100.106484 
1833.000000	99.986306  
1832.000000	99.882536  
1831.000000	99.829667  
1830.000000	99.838618  
1829.000000	99.885020  
1828.000000	99.930376  
1827.000000	99.956320  
1826.000000	99.964764  
1825.000000	99.962997  
1824.000000	99.960470  
1823.000000	99.968719  
1822.000000	99.995297  
1821.000000	100.036488 
1820.000000	100.075621 
1819.000000	100.090295 
1818.000000	100.062300 
1817.000000	99.988065  
1816.000000	99.886162  
1815.000000	99.789610  
1814.000000	99.731961  
1813.000000	99.736125  
1812.000000	99.804455  
1811.000000	99.912664  
1810.000000	100.017209 
1809.000000	100.081013 
1808.000000	100.092985 
1807.000000	100.061854 
1806.000000	100.001267 
1805.000000	99.927286  
1804.000000	99.862933  
1803.000000	99.831398  
1802.000000	99.840801  
1801.000000	99.872675  
1800.000000	99.892649  
1799.000000	99.880074  
1798.000000	99.843171  
1797.000000	99.810116  
1796.000000	99.809078  
1795.000000	99.854566  
1794.000000	99.943011  
1793.000000	100.044107 
1792.000000	100.109056 
1791.000000	100.107257 
1790.000000	100.043150 
1789.000000	99.940894  
1788.000000	99.829606  
1787.000000	99.738824  
1786.000000	99.693568  
1785.000000	99.705851  
1784.000000	99.767252  
1783.000000	99.851863  
1782.000000	99.932193  
1781.000000	99.986898  
1780.000000	100.003557 
1779.000000	99.986787  
1778.000000	99.952871  
1777.000000	99.916446  
1776.000000	99.884306  
1775.000000	99.864091  
1774.000000	99.868132  
1773.000000	99.888797  
1772.000000	99.890943  
1771.000000	99.852657  
1770.000000	99.791312  
1769.000000	99.749667  
1768.000000	99.764771  
1767.000000	99.833253  
1766.000000	99.915963  
1765.000000	99.978569  
1764.000000	100.011604 
1763.000000	100.013810 
1762.000000	99.978213  
1761.000000	99.906832  
1760.000000	99.822475  
1759.000000	99.754362  
1758.000000	99.724637  
1757.000000	99.742745  
1756.000000	99.791197  
1755.000000	99.836038  
1754.000000	99.859032  
1753.000000	99.873029  
1752.000000	99.902525  
1751.000000	99.953581  
1750.000000	100.009227 
1749.000000	100.047044 
1748.000000	100.054601 
1747.000000	100.031788 
1746.000000	99.988302  
1745.000000	99.936210  
1744.000000	99.888892  
1743.000000	99.861644  
1742.000000	99.862592  
1741.000000	99.888285  
1740.000000	99.929982  
1739.000000	99.975674  
1738.000000	100.009201 
1737.000000	100.020164 
1736.000000	100.023046 
1735.000000	100.021190 
1734.000000	99.978837  
1733.000000	99.901754  
1732.000000	99.838046  
1731.000000	99.799962  
1730.000000	99.779940  
1729.000000	99.779035  
1728.000000	99.794730  
1727.000000	99.818895  
1726.000000	99.844786  
1725.000000	99.866774  
1724.000000	99.882592  
1723.000000	99.897045  
1722.000000	99.911475  
1721.000000	99.918751  
1720.000000	99.914757  
1719.000000	99.903821  
1718.000000	99.884889  
1717.000000	99.853622  
1716.000000	99.816466  
1715.000000	99.780440  
1714.000000	99.747122  
1713.000000	99.727967  
1712.000000	99.741812  
1711.000000	99.795838  
1710.000000	99.879127  
1709.000000	99.970502  
1708.000000	100.044274 
1707.000000	100.072676 
1706.000000	100.033247 
1705.000000	99.930191  
1704.000000	99.799746  
1703.000000	99.685710  
1702.000000	99.644063  
1701.000000	99.682569  
1700.000000	99.716177  
1699.000000	99.691379  
1698.000000	99.625192  
1697.000000	99.558865  
1696.000000	99.537108  
1695.000000	99.564481  
1694.000000	99.619594  
1693.000000	99.674142  
1692.000000	99.705749  
1691.000000	99.712371  
1690.000000	99.684406  
1689.000000	99.603061  
1688.000000	99.462921  
1687.000000	99.299565  
1686.000000	99.193628  
1685.000000	99.211145  
1684.000000	99.339742  
1683.000000	99.484923  
1682.000000	99.570125  
1681.000000	99.596030  
1680.000000	99.588721  
1679.000000	99.564349  
1678.000000	99.525692  
1677.000000	99.482463  
1676.000000	99.448672  
1675.000000	99.427506  
1674.000000	99.419486  
1673.000000	99.422929  
1672.000000	99.430146  
1671.000000	99.430648  
1670.000000	99.407420  
1669.000000	99.359229  
1668.000000	99.317749  
1667.000000	99.318493  
1666.000000	99.370877  
1665.000000	99.461992  
1664.000000	99.558301  
1663.000000	99.600410  
1662.000000	99.545911  
1661.000000	99.415725  
1660.000000	99.265411  
1659.000000	99.146806  
1658.000000	99.085054  
1657.000000	99.068768  
1656.000000	99.085919  
1655.000000	99.179059  
1654.000000	99.361391  
1653.000000	99.473679  
1652.000000	99.440104  
1651.000000	99.401524  
1650.000000	99.401813  
1649.000000	99.401063  
1648.000000	99.410849  
1647.000000	99.433996  
1646.000000	99.430390  
1645.000000	99.377435  
1644.000000	99.303079  
1643.000000	99.223992  
1642.000000	99.152816  
1641.000000	99.119848  
1640.000000	99.149192  
1639.000000	99.243721  
1638.000000	99.396855  
1637.000000	99.586649  
1636.000000	99.724972  
1635.000000	99.707537  
1634.000000	99.557995  
1633.000000	99.379186  
1632.000000	99.233752  
1631.000000	99.153957  
1630.000000	99.153426  
1629.000000	99.212663  
1628.000000	99.287540  
1627.000000	99.340082  
1626.000000	99.361297  
1625.000000	99.362740  
1624.000000	99.354108  
1623.000000	99.341447  
1622.000000	99.334761  
1621.000000	99.339863  
1620.000000	99.347868  
1619.000000	99.347851  
1618.000000	99.329117  
1617.000000	99.267153  
1616.000000	99.162131  
1615.000000	99.061399  
1614.000000	99.001460  
1613.000000	98.992442  
1612.000000	99.044307  
1611.000000	99.150084  
1610.000000	99.268831  
1609.000000	99.348503  
1608.000000	99.359603  
1607.000000	99.305044  
1606.000000	99.213651  
1605.000000	99.124219  
1604.000000	99.065490  
1603.000000	99.048150  
1602.000000	99.062751  
1601.000000	99.085755  
1600.000000	99.093875  
1599.000000	99.076332  
1598.000000	99.040278  
1597.000000	99.007748  
1596.000000	99.003900  
1595.000000	99.039595  
1594.000000	99.101412  
1593.000000	99.161428  
1592.000000	99.194470  
1591.000000	99.184256  
1590.000000	99.124883  
1589.000000	99.027377  
1588.000000	98.920128  
1587.000000	98.836514  
1586.000000	98.798618  
1585.000000	98.812226  
1584.000000	98.866482  
1583.000000	98.937221  
1582.000000	98.997322  
1581.000000	99.023425  
1580.000000	99.001290  
1579.000000	98.936029  
1578.000000	98.863477  
1577.000000	98.827632  
1576.000000	98.835142  
1575.000000	98.858337  
1574.000000	98.870819  
1573.000000	98.857131  
1572.000000	98.825409  
1571.000000	98.797294  
1570.000000	98.776546  
1569.000000	98.763558  
1568.000000	98.771282  
1567.000000	98.811850  
1566.000000	98.875514  
1565.000000	98.927595  
1564.000000	98.925823  
1563.000000	98.853305  
1562.000000	98.738239  
1561.000000	98.656302  
1560.000000	98.619870  
1559.000000	98.598134  
1558.000000	98.588816  
1557.000000	98.575016  
1556.000000	98.565365  
1555.000000	98.563663  
1554.000000	98.570488  
1553.000000	98.572591  
1552.000000	98.558264  
1551.000000	98.536776  
1550.000000	98.525465  
1549.000000	98.522476  
1548.000000	98.509693  
1547.000000	98.476488  
1546.000000	98.424417  
1545.000000	98.361872  
1544.000000	98.302010  
1543.000000	98.256866  
1542.000000	98.231386  
1541.000000	98.232264  
1540.000000	98.266241  
1539.000000	98.309194  
1538.000000	98.347403  
1537.000000	98.386355  
1536.000000	98.413018  
1535.000000	98.417961  
1534.000000	98.379322  
1533.000000	98.280439  
1532.000000	98.154561  
1531.000000	98.052515  
1530.000000	97.991698  
1529.000000	97.958682  
1528.000000	97.941223  
1527.000000	97.943081  
1526.000000	97.963270  
1525.000000	97.981883  
1524.000000	97.980116  
1523.000000	97.962483  
1522.000000	97.944731  
1521.000000	97.933759  
1520.000000	97.929814  
1519.000000	97.919493  
1518.000000	97.869365  
1517.000000	97.762673  
1516.000000	97.627131  
1515.000000	97.502638  
1514.000000	97.406615  
1513.000000	97.342564  
1512.000000	97.317073  
1511.000000	97.329399  
1510.000000	97.365102  
1509.000000	97.417801  
1508.000000	97.490552  
1507.000000	97.541677  
1506.000000	97.468331  
1505.000000	97.286785  
1504.000000	97.120077  
1503.000000	97.001121  
1502.000000	96.919595  
1501.000000	96.869372  
1500.000000	96.836038  
1499.000000	96.793991  
1498.000000	96.725989  
1497.000000	96.634525  
1496.000000	96.545341  
1495.000000	96.487495  
1494.000000	96.459498  
1493.000000	96.437796  
1492.000000	96.405065  
1491.000000	96.344160  
1490.000000	96.231939  
1489.000000	96.062242  
1488.000000	95.857341  
1487.000000	95.651218  
1486.000000	95.471744  
1485.000000	95.342773  
1484.000000	95.275665  
1483.000000	95.257940  
1482.000000	95.256110  
1481.000000	95.232198  
1480.000000	95.168258  
1479.000000	95.065664  
1478.000000	94.928627  
1477.000000	94.765672  
1476.000000	94.605391  
1475.000000	94.483104  
1474.000000	94.409246  
1473.000000	94.359822  
1472.000000	94.300331  
1471.000000	94.219727  
1470.000000	94.129386  
1469.000000	94.045515  
1468.000000	93.989266  
1467.000000	93.978284  
1466.000000	94.004212  
1465.000000	94.025631  
1464.000000	93.996674  
1463.000000	93.908357  
1462.000000	93.775243  
1461.000000	93.600158  
1460.000000	93.376872  
1459.000000	93.116641  
1458.000000	92.868317  
1457.000000	92.704538  
1456.000000	92.656690  
1455.000000	92.677996  
1454.000000	92.687813  
1453.000000	92.635510  
1452.000000	92.530473  
1451.000000	92.412614  
1450.000000	92.318131  
1449.000000	92.276305  
1448.000000	92.311754  
1447.000000	92.418807  
1446.000000	92.559597  
1445.000000	92.698531  
1444.000000	92.815651  
1443.000000	92.906093  
1442.000000	92.977372  
1441.000000	93.045521  
1440.000000	93.129713  
1439.000000	93.252594  
1438.000000	93.426717  
1437.000000	93.606548  
1436.000000	93.698653  
1435.000000	93.666330  
1434.000000	93.548926  
1433.000000	93.395012  
1432.000000	93.246597  
1431.000000	93.139239  
1430.000000	93.090115  
1429.000000	93.092831  
1428.000000	93.124490  
1427.000000	93.153826  
1426.000000	93.153670  
1425.000000	93.115286  
1424.000000	93.052393  
1423.000000	92.992535  
1422.000000	92.959343  
1421.000000	92.971441  
1420.000000	93.027139  
1419.000000	93.080510  
1418.000000	93.077633  
1417.000000	93.007597  
1416.000000	92.898415  
1415.000000	92.791208  
1414.000000	92.724351  
1413.000000	92.723995  
1412.000000	92.801537  
1411.000000	92.945344  
1410.000000	93.113744  
1409.000000	93.251988  
1408.000000	93.322439  
1407.000000	93.317213  
1406.000000	93.257592  
1405.000000	93.188064  
1404.000000	93.154425  
1403.000000	93.177848  
1402.000000	93.250322  
1401.000000	93.350654  
1400.000000	93.451454  
1399.000000	93.522987  
1398.000000	93.556512  
1397.000000	93.580154  
1396.000000	93.642253  
1395.000000	93.772498  
1394.000000	93.953807  
1393.000000	94.140231  
1392.000000	94.292952  
1391.000000	94.386917  
1390.000000	94.408763  
1389.000000	94.368001  
1388.000000	94.307275  
1387.000000	94.290012  
1386.000000	94.357868  
1385.000000	94.505848  
1384.000000	94.702387  
1383.000000	94.910540  
1382.000000	95.092265  
1381.000000	95.218835  
1380.000000	95.285629  
1379.000000	95.312667  
1378.000000	95.332319  
1377.000000	95.372428  
1376.000000	95.444313  
1375.000000	95.539500  
1374.000000	95.633700  
1373.000000	95.699007  
1372.000000	95.723074  
1371.000000	95.717740  
1370.000000	95.714799  
1369.000000	95.754911  
1368.000000	95.861010  
1367.000000	96.019700  
1366.000000	96.193435  
1365.000000	96.343541  
1364.000000	96.438816  
1363.000000	96.461592  
1362.000000	96.421468  
1361.000000	96.355482  
1360.000000	96.305522  
1359.000000	96.297696  
1358.000000	96.339946  
1357.000000	96.426527  
1356.000000	96.539811  
1355.000000	96.654165  
1354.000000	96.746661  
1353.000000	96.808563  
1352.000000	96.848630  
1351.000000	96.884353  
1350.000000	96.930015  
1349.000000	96.987987  
1348.000000	97.044346  
1347.000000	97.077631  
1346.000000	97.073793  
1345.000000	97.034490  
1344.000000	96.972970  
1343.000000	96.907953  
1342.000000	96.863372  
1341.000000	96.868290  
1340.000000	96.944044  
1339.000000	97.082086  
1338.000000	97.241350  
1337.000000	97.374335  
1336.000000	97.450880  
1335.000000	97.464087  
1334.000000	97.428057  
1333.000000	97.370155  
1332.000000	97.318506  
1331.000000	97.291153  
1330.000000	97.292501  
1329.000000	97.316299  
1328.000000	97.351943  
1327.000000	97.390880  
1326.000000	97.430659  
1325.000000	97.473625  
1324.000000	97.521155  
1323.000000	97.572160  
1322.000000	97.624066  
1321.000000	97.670383  
1320.000000	97.697833  
1319.000000	97.692836  
1318.000000	97.653270  
1317.000000	97.590300  
1316.000000	97.520375  
1315.000000	97.462048  
1314.000000	97.437813  
1313.000000	97.466342  
1312.000000	97.546896  
1311.000000	97.656095  
1310.000000	97.763653  
1309.000000	97.848177  
1308.000000	97.899264  
1307.000000	97.913266  
1306.000000	97.893054  
1305.000000	97.849131  
1304.000000	97.796172  
1303.000000	97.748735  
1302.000000	97.717608  
1301.000000	97.707093  
1300.000000	97.715170  
1299.000000	97.738098  
1298.000000	97.773911  
1297.000000	97.820145  
1296.000000	97.870963  
1295.000000	97.920659  
1294.000000	97.968681  
1293.000000	98.015263  
1292.000000	98.052198  
1291.000000	98.063828  
1290.000000	98.039213  
1289.000000	97.980547  
1288.000000	97.901017  
1287.000000	97.820509  
1286.000000	97.763353  
1285.000000	97.752153  
1284.000000	97.797263  
1283.000000	97.890524  
1282.000000	98.008307  
1281.000000	98.120181  
1280.000000	98.197575  
1279.000000	98.222522  
1278.000000	98.195487  
1277.000000	98.135166  
1276.000000	98.068885  
1275.000000	98.020423  
1274.000000	98.001123  
1273.000000	98.006459  
1272.000000	98.020730  
1271.000000	98.028920  
1270.000000	98.027219  
1269.000000	98.023900  
1268.000000	98.033456  
1267.000000	98.071305  
1266.000000	98.146783  
1265.000000	98.251310  
1264.000000	98.352918  
1263.000000	98.409652  
1262.000000	98.393682  
1261.000000	98.304840  
1260.000000	98.167630  
1259.000000	98.023495  
1258.000000	97.921636  
1257.000000	97.901417  
1256.000000	97.971921  
1255.000000	98.104658  
1254.000000	98.247757  
1253.000000	98.351809  
1252.000000	98.389999  
1251.000000	98.365535  
1250.000000	98.307001  
1249.000000	98.251873  
1248.000000	98.226109  
1247.000000	98.232744  
1246.000000	98.253462  
1245.000000	98.258356  
1244.000000	98.220664  
1243.000000	98.134736  
1242.000000	98.027342  
1241.000000	97.949038  
1240.000000	97.948558  
1239.000000	98.046687  
1238.000000	98.222568  
1237.000000	98.418292  
1236.000000	98.560757  
1235.000000	98.593027  
1234.000000	98.500406  
1233.000000	98.315263  
1232.000000	98.101627  
1231.000000	97.933041  
1230.000000	97.867048  
1229.000000	97.919053  
1228.000000	98.052244  
1227.000000	98.196552  
1226.000000	98.287708  
1225.000000	98.299818  
1224.000000	98.251665  
1223.000000	98.190059  
1222.000000	98.163029  
1221.000000	98.194203  
1220.000000	98.270001  
1219.000000	98.345837  
1218.000000	98.367513  
1217.000000	98.297361  
1216.000000	98.135875  
1215.000000	97.931196  
1214.000000	97.764808  
1213.000000	97.712333  
1212.000000	97.804146  
1211.000000	98.011766  
1210.000000	98.262285  
1209.000000	98.467183  
1208.000000	98.553612  
1207.000000	98.494192  
1206.000000	98.322999  
1205.000000	98.118921  
1204.000000	97.964045  
1203.000000	97.907112  
1202.000000	97.948555  
1201.000000	98.045626  
1200.000000	98.133005  
1199.000000	98.155430  
1198.000000	98.100654  
1197.000000	98.008895  
1196.000000	97.948395  
1195.000000	97.974716  
1194.000000	98.099522  
1193.000000	98.283672  
1192.000000	98.453677  
1191.000000	98.531956  
1190.000000	98.470232  
1189.000000	98.272692  
1188.000000	97.999897  
1187.000000	97.751521  
1186.000000	97.626376  
1185.000000	97.673849  
1184.000000	97.869134  
1183.000000	98.128455  
1182.000000	98.351241  
1181.000000	98.463204  
1180.000000	98.440996  
1179.000000	98.316522  
1178.000000	98.161896  
1177.000000	98.054145  
1176.000000	98.034649  
1175.000000	98.088299  
1174.000000	98.155662  
1173.000000	98.170287  
1172.000000	98.097322  
1171.000000	97.953144  
1170.000000	97.799040  
1169.000000	97.712578  
1168.000000	97.750573  
1167.000000	97.919841  
1166.000000	98.168290  
1165.000000	98.403192  
1164.000000	98.528940  
1163.000000	98.486814  
1162.000000	98.280536  
1161.000000	97.976305  
1160.000000	97.677985  
1159.000000	97.485912  
1158.000000	97.451417  
1157.000000	97.553510  
1156.000000	97.717859  
1155.000000	97.861304  
1154.000000	97.928852  
1153.000000	97.908483  
1152.000000	97.829421  
1151.000000	97.748124  
1150.000000	97.717117  
1149.000000	97.748002  
1148.000000	97.799997  
1147.000000	97.806295  
1146.000000	97.714870  
1145.000000	97.513966  
1144.000000	97.236751  
1143.000000	96.953453  
1142.000000	96.748415  
1141.000000	96.682826  
1140.000000	96.764292  
1139.000000	96.941343  
1138.000000	97.122949  
1137.000000	97.213956  
1136.000000	97.153078  
1135.000000	96.937560  
1134.000000	96.619391  
1133.000000	96.274635  
1132.000000	95.971392  
1131.000000	95.751904  
1130.000000	95.620751  
1129.000000	95.542470  
1128.000000	95.464821  
1127.000000	95.358104  
1126.000000	95.234130  
1125.000000	95.127828  
1124.000000	95.067233  
1123.000000	95.060922  
1122.000000	95.098122  
1121.000000	95.146195  
1120.000000	95.152522  
1119.000000	95.066516  
1118.000000	94.872952  
1117.000000	94.606311  
1116.000000	94.335026  
1115.000000	94.133340  
1114.000000	94.057123  
1113.000000	94.128318  
1112.000000	94.328785  
1111.000000	94.603683  
1110.000000	94.878470  
1109.000000	95.087995  
1108.000000	95.201075  
1107.000000	95.225525  
1106.000000	95.193170  
1105.000000	95.137994  
1104.000000	95.084483  
1103.000000	95.048233  
1102.000000	95.037167  
1101.000000	95.050473  
1100.000000	95.085165  
1099.000000	95.148446  
1098.000000	95.256863  
1097.000000	95.419334  
1096.000000	95.623762  
1095.000000	95.843647  
1094.000000	96.052719  
1093.000000	96.227335  
1092.000000	96.339695  
1091.000000	96.362876  
1090.000000	96.289520  
1089.000000	96.141082  
1088.000000	95.958412  
1087.000000	95.789164  
1086.000000	95.680192  
1085.000000	95.667795  
1084.000000	95.764314  
1083.000000	95.950179  
1082.000000	96.179740  
1081.000000	96.397623  
1080.000000	96.553316  
1079.000000	96.610191  
1078.000000	96.554633  
1077.000000	96.403402  
1076.000000	96.200889  
1075.000000	96.002149  
1074.000000	95.846091  
1073.000000	95.737669  
1072.000000	95.657369  
1071.000000	95.587648  
1070.000000	95.527777  
1069.000000	95.487496  
1068.000000	95.476538  
1067.000000	95.502666  
1066.000000	95.568022  
1065.000000	95.654486  
1064.000000	95.712039  
1063.000000	95.670877  
1062.000000	95.475396  
1061.000000	95.114390  
1060.000000	94.629073  
1059.000000	94.101977  
1058.000000	93.631224  
1057.000000	93.294946  
1056.000000	93.120782  
1055.000000	93.071399  
1054.000000	93.050835  
1053.000000	92.936632  
1052.000000	92.628693  
1051.000000	92.089478  
1050.000000	91.350708  
1049.000000	90.482736  
1048.000000	89.551696  
1047.000000	88.587807  
1046.000000	87.571211  
1045.000000	86.445087  
1044.000000	85.156452  
1043.000000	83.696630  
1042.000000	82.113384  
1041.000000	80.497077  
1040.000000	78.955118  
1039.000000	77.569929  
1038.000000	76.347230  
1037.000000	75.203516  
1036.000000	74.013589  
1035.000000	72.669568  
1034.000000	71.114466  
1033.000000	69.364620  
1032.000000	67.522401  
1031.000000	65.744528  
1030.000000	64.167515  
1029.000000	62.857292  
1028.000000	61.815166  
1027.000000	60.991275  
1026.000000	60.293979  
1025.000000	59.646093  
1024.000000	59.061948  
1023.000000	58.644778  
1022.000000	58.499356  
1021.000000	58.667490  
1020.000000	59.131228  
1019.000000	59.819015  
1018.000000	60.600109  
1017.000000	61.333082  
1016.000000	61.957576  
1015.000000	62.532527  
1014.000000	63.190739  
1013.000000	64.073659  
1012.000000	65.286203  
1011.000000	66.849086  
1010.000000	68.662164  
1009.000000	70.539298  
1008.000000	72.301720  
1007.000000	73.848952  
1006.000000	75.178743  
1005.000000	76.377927  
1004.000000	77.584775  
1003.000000	78.915249  
1002.000000	80.391914  
1001.000000	81.935665  
1000.000000	83.418153  
999.000000	 84.721055  
998.000000	 85.780048  
997.000000	 86.617083  
996.000000	 87.340490  
995.000000	 88.089259  
994.000000	 88.945274  
993.000000	 89.880224  
992.000000	 90.776451  
991.000000	 91.493615  
990.000000	 91.934231  
989.000000	 92.085629  
988.000000	 92.033856  
987.000000	 91.943422  
986.000000	 91.993836  
985.000000	 92.295462  
984.000000	 92.840682  
983.000000	 93.517883  
982.000000	 94.167329  
981.000000	 94.646059  
980.000000	 94.879442  
979.000000	 94.889036  
978.000000	 94.784670  
977.000000	 94.710984  
976.000000	 94.771293  
975.000000	 94.975973  
974.000000	 95.245996  
973.000000	 95.465374  
972.000000	 95.547000  
971.000000	 95.477747  
970.000000	 95.328350  
969.000000	 95.225884  
968.000000	 95.297469  
967.000000	 95.603895  
966.000000	 96.094048  
965.000000	 96.617101  
964.000000	 96.994124  
963.000000	 97.102550  
962.000000	 96.924832  
961.000000	 96.547208  
960.000000	 96.127153  
959.000000	 95.842975  
958.000000	 95.820878  
957.000000	 96.067446  
956.000000	 96.466579  
955.000000	 96.851315  
954.000000	 97.094242  
953.000000	 97.155958  
952.000000	 97.080877  
951.000000	 96.968029  
950.000000	 96.928554  
949.000000	 97.027257  
948.000000	 97.235443  
947.000000	 97.438789  
946.000000	 97.505745  
945.000000	 97.368308  
944.000000	 97.060715  
943.000000	 96.704093  
942.000000	 96.454506  
941.000000	 96.436749  
940.000000	 96.690233  
939.000000	 97.147000  
938.000000	 97.652599  
937.000000	 98.029620  
936.000000	 98.155913  
935.000000	 98.014863  
934.000000	 97.691719  
933.000000	 97.323931  
932.000000	 97.042701  
931.000000	 96.931664  
930.000000	 97.000002  
929.000000	 97.176924  
928.000000	 97.348376  
927.000000	 97.426577  
926.000000	 97.403536  
925.000000	 97.346021  
924.000000	 97.343190  
923.000000	 97.453249  
922.000000	 97.674374  
921.000000	 97.939662  
920.000000	 98.137796  
919.000000	 98.161458  
918.000000	 97.964421  
917.000000	 97.589999  
916.000000	 97.154653  
915.000000	 96.803849  
914.000000	 96.658723  
913.000000	 96.768898  
912.000000	 97.092316  
911.000000	 97.511650  
910.000000	 97.881841  
909.000000	 98.091272  
908.000000	 98.106101  
907.000000	 97.973722  
906.000000	 97.784300  
905.000000	 97.615356  
904.000000	 97.498804  
903.000000	 97.425400  
902.000000	 97.365197  
901.000000	 97.285391  
900.000000	 97.170195  
899.000000	 97.042898  
898.000000	 96.966228  
897.000000	 97.005800  
896.000000	 97.184291  
895.000000	 97.464548  
894.000000	 97.766089  
893.000000	 97.994240  
892.000000	 98.068394  
891.000000	 97.950442  
890.000000	 97.665669  
889.000000	 97.295657  
888.000000	 96.942591  
887.000000	 96.689795  
886.000000	 96.578915  
885.000000	 96.609879  
884.000000	 96.756703  
883.000000	 96.980859  
882.000000	 97.233679  
881.000000	 97.460241  
880.000000	 97.615460  
879.000000	 97.680799  
878.000000	 97.661462  
877.000000	 97.566316  
876.000000	 97.398930  
875.000000	 97.172072  
874.000000	 96.919119  
873.000000	 96.681554  
872.000000	 96.493125  
871.000000	 96.381164  
870.000000	 96.368437  
869.000000	 96.459828  
868.000000	 96.632572  
867.000000	 96.848490  
866.000000	 97.072343  
865.000000	 97.271414  
864.000000	 97.402349  
863.000000	 97.413651  
862.000000	 97.270966  
861.000000	 96.980727  
860.000000	 96.593297  
859.000000	 96.190878  
858.000000	 95.867321  
857.000000	 95.702829  
856.000000	 95.740582  
855.000000	 95.968622  
854.000000	 96.312656  
853.000000	 96.656313  
852.000000	 96.889386  
851.000000	 96.954818  
850.000000	 96.863216  
849.000000	 96.670948  
848.000000	 96.447609  
847.000000	 96.252906  
846.000000	 96.115404  
845.000000	 96.014943  
844.000000	 95.896633  
843.000000	 95.720763  
842.000000	 95.505617  
841.000000	 95.323769  
840.000000	 95.263429  
839.000000	 95.388633  
838.000000	 95.707250  
837.000000	 96.148429  
836.000000	 96.568068  
835.000000	 96.795974  
834.000000	 96.708077  
833.000000	 96.283449  
832.000000	 95.620029  
831.000000	 94.911419  
830.000000	 94.384979  
829.000000	 94.209281  
828.000000	 94.416313  
827.000000	 94.882705  
826.000000	 95.382631  
825.000000	 95.696534  
824.000000	 95.721600  
823.000000	 95.518237  
822.000000	 95.259408  
821.000000	 95.112591  
820.000000	 95.142541  
819.000000	 95.291630  
818.000000	 95.419076  
817.000000	 95.366239  
816.000000	 95.033634  
815.000000	 94.451315  
814.000000	 93.798257  
813.000000	 93.332351  
812.000000	 93.264063  
811.000000	 93.651898  
810.000000	 94.369036  
809.000000	 95.151107  
808.000000	 95.699816  
807.000000	 95.798165  
806.000000	 95.399937  
805.000000	 94.654203  
804.000000	 93.842697  
803.000000	 93.254663  
802.000000	 93.055392  
801.000000	 93.220201  
800.000000	 93.571394  
799.000000	 93.877932  
798.000000	 93.961008  
797.000000	 93.776674  
796.000000	 93.446227  
795.000000	 93.201454  
794.000000	 93.247083  
793.000000	 93.621555  
792.000000	 94.165840  
791.000000	 94.610829  
790.000000	 94.701876  
789.000000	 94.300430  
788.000000	 93.454586  
787.000000	 92.424005  
786.000000	 91.601083  
785.000000	 91.319184  
784.000000	 91.671424  
783.000000	 92.474273  
782.000000	 93.377844  
781.000000	 94.028097  
780.000000	 94.195455  
779.000000	 93.849250  
778.000000	 93.173332  
777.000000	 92.486502  
776.000000	 92.078045  
775.000000	 92.055448  
774.000000	 92.302896  
773.000000	 92.569883  
772.000000	 92.617712  
771.000000	 92.334959  
770.000000	 91.788950  
769.000000	 91.209051  
768.000000	 90.898331  
767.000000	 91.085584  
766.000000	 91.774919  
765.000000	 92.704099  
764.000000	 93.466434  
763.000000	 93.710168  
762.000000	 93.291374  
761.000000	 92.322597  
760.000000	 91.127346  
759.000000	 90.131110  
758.000000	 89.694314  
757.000000	 89.932727  
756.000000	 90.653071  
755.000000	 91.468565  
754.000000	 92.008662  
753.000000	 92.087224  
752.000000	 91.754450  
751.000000	 91.243817  
750.000000	 90.851858  
749.000000	 90.786358  
748.000000	 91.051772  
747.000000	 91.444645  
746.000000	 91.665721  
745.000000	 91.481056  
744.000000	 90.842365  
743.000000	 89.922171  
742.000000	 89.061033  
741.000000	 88.631777  
740.000000	 88.862512  
739.000000	 89.706029  
738.000000	 90.835887  
737.000000	 91.790448  
736.000000	 92.188946  
735.000000	 91.893244  
734.000000	 91.043270  
733.000000	 89.974383  
732.000000	 89.072447  
731.000000	 88.625659  
730.000000	 88.709301  
729.000000	 89.150214  
728.000000	 89.620050  
727.000000	 89.824329  
726.000000	 89.668259  
725.000000	 89.293513  
724.000000	 88.973097  
723.000000	 88.950001  
722.000000	 89.319327  
721.000000	 89.973775  
720.000000	 90.613787  
719.000000	 90.877078  
718.000000	 90.542968  
717.000000	 89.642193  
716.000000	 88.436556  
715.000000	 87.333369  
714.000000	 86.728111  
713.000000	 86.819152  
712.000000	 87.528081  
711.000000	 88.555182  
710.000000	 89.503614  
709.000000	 90.032441  
708.000000	 89.993117  
707.000000	 89.486628  
706.000000	 88.799110  
705.000000	 88.231313  
704.000000	 87.937815  
703.000000	 87.886842  
702.000000	 87.924649  
701.000000	 87.870252  
700.000000	 87.604036  
699.000000	 87.141467  
698.000000	 86.662207  
697.000000	 86.440083  
696.000000	 86.686837  
695.000000	 87.414355  
694.000000	 88.407455  
693.000000	 89.315612  
692.000000	 89.791853  
691.000000	 89.606451  
690.000000	 88.728118  
689.000000	 87.373177  
688.000000	 85.969363  
687.000000	 84.981625  
686.000000	 84.677726  
685.000000	 85.021226  
684.000000	 85.761591  
683.000000	 86.597832  
682.000000	 87.287513  
681.000000	 87.697580  
680.000000	 87.834394  
679.000000	 87.818298  
678.000000	 87.778414  
677.000000	 87.735330  
676.000000	 87.581085  
675.000000	 87.198890  
674.000000	 86.557108  
673.000000	 85.731038  
672.000000	 84.827606  
671.000000	 83.932067  
670.000000	 83.162032  
669.000000	 83.061300  
668.000000	 84.361661  
667.000000	 86.232071  
666.000000	 87.444987  
665.000000	 88.071399  
664.000000	 88.378395  
663.000000	 88.321381  
662.000000	 87.768428  
661.000000	 86.766501  
660.000000	 85.536333  
659.000000	 84.342964  
658.000000	 83.424547  
657.000000	 82.936069  
656.000000	 82.980999  
655.000000	 83.627571  
654.000000	 84.803042  
653.000000	 86.199278  
652.000000	 87.466462  
651.000000	 88.282994  
650.000000	 88.550783  

