PE IR                   SPECTRUM    ASCII       PEDS        1.60        
  -1
~SP.SP
18/03/23
18:07:04.00
18/03/23
18:07:04.00
pili
NI
650.000000
4









SPECTRUM 100,CPU32 MAIN 00.02.8200 12-DECEMBER-2006 10:00:00
MIR TGS
MIR
OPTKBR
78890
0.200000

4.000000
STRONG
RATIO
SPECTRUM
MAGNITUDE
UNIVERSAL ATR
DOUBLE

COMBINED


0


#HDR
-1
-1
#GR
CM-1
%T
0.00002384185791015625
0.0
4000.000000
-1.000000
3351
8
102.912319
82.954600
#DATA
4000.000000	99.234120  
3999.000000	99.233263  
3998.000000	99.233861  
3997.000000	99.235210  
3996.000000	99.238649  
3995.000000	99.244492  
3994.000000	99.252665  
3993.000000	99.263039  
3992.000000	99.274130  
3991.000000	99.282570  
3990.000000	99.285027  
3989.000000	99.280847  
3988.000000	99.272508  
3987.000000	99.263412  
3986.000000	99.255565  
3985.000000	99.249230  
3984.000000	99.244115  
3983.000000	99.240502  
3982.000000	99.239246  
3981.000000	99.240804  
3980.000000	99.244253  
3979.000000	99.247035  
3978.000000	99.245942  
3977.000000	99.239542  
3976.000000	99.230478  
3975.000000	99.224513  
3974.000000	99.225720  
3973.000000	99.232070  
3972.000000	99.236836  
3971.000000	99.234989  
3970.000000	99.227994  
3969.000000	99.222157  
3968.000000	99.222618  
3967.000000	99.229845  
3966.000000	99.241004  
3965.000000	99.252757  
3964.000000	99.262149  
3963.000000	99.266151  
3962.000000	99.262390  
3961.000000	99.251311  
3960.000000	99.237377  
3959.000000	99.226999  
3958.000000	99.224426  
3957.000000	99.229027  
3956.000000	99.235929  
3955.000000	99.240048  
3954.000000	99.240123  
3953.000000	99.239312  
3952.000000	99.242123  
3951.000000	99.250312  
3950.000000	99.261711  
3949.000000	99.272214  
3948.000000	99.278964  
3947.000000	99.281925  
3946.000000	99.282696  
3945.000000	99.282344  
3944.000000	99.280764  
3943.000000	99.278306  
3942.000000	99.276123  
3941.000000	99.273908  
3940.000000	99.269236  
3939.000000	99.260750  
3938.000000	99.251178  
3937.000000	99.246022  
3936.000000	99.248266  
3935.000000	99.255003  
3934.000000	99.259336  
3933.000000	99.255967  
3932.000000	99.245623  
3931.000000	99.234669  
3930.000000	99.230310  
3929.000000	99.235302  
3928.000000	99.246344  
3927.000000	99.257044  
3926.000000	99.262138  
3925.000000	99.261279  
3924.000000	99.259134  
3923.000000	99.260698  
3922.000000	99.267701  
3921.000000	99.278377  
3920.000000	99.289102  
3919.000000	99.295943  
3918.000000	99.296268  
3917.000000	99.290454  
3916.000000	99.281781  
3915.000000	99.274012  
3914.000000	99.268893  
3913.000000	99.265716  
3912.000000	99.262942  
3911.000000	99.259846  
3910.000000	99.257177  
3909.000000	99.256608  
3908.000000	99.258467  
3907.000000	99.260992  
3906.000000	99.261883  
3905.000000	99.261934  
3904.000000	99.266555  
3903.000000	99.279876  
3902.000000	99.297797  
3901.000000	99.310227  
3900.000000	99.309167  
3899.000000	99.295765  
3898.000000	99.278899  
3897.000000	99.267384  
3896.000000	99.264698  
3895.000000	99.268016  
3894.000000	99.270196  
3893.000000	99.265984  
3892.000000	99.258371  
3891.000000	99.256915  
3890.000000	99.265035  
3889.000000	99.275417  
3888.000000	99.277686  
3887.000000	99.267222  
3886.000000	99.251067  
3885.000000	99.244766  
3884.000000	99.256767  
3883.000000	99.279491  
3882.000000	99.296141  
3881.000000	99.293992  
3880.000000	99.275150  
3879.000000	99.254151  
3878.000000	99.242634  
3877.000000	99.242704  
3876.000000	99.250008  
3875.000000	99.258987  
3874.000000	99.267388  
3873.000000	99.276233  
3872.000000	99.284826  
3871.000000	99.289257  
3870.000000	99.287078  
3869.000000	99.279783  
3868.000000	99.270620  
3867.000000	99.263278  
3866.000000	99.259285  
3865.000000	99.255729  
3864.000000	99.249848  
3863.000000	99.244347  
3862.000000	99.246563  
3861.000000	99.260703  
3860.000000	99.281268  
3859.000000	99.296670  
3858.000000	99.299746  
3857.000000	99.293704  
3856.000000	99.286948  
3855.000000	99.280677  
3854.000000	99.271610  
3853.000000	99.264368  
3852.000000	99.260699  
3851.000000	99.254566  
3850.000000	99.249062  
3849.000000	99.252194  
3848.000000	99.266941  
3847.000000	99.287663  
3846.000000	99.304728  
3845.000000	99.312294  
3844.000000	99.311348  
3843.000000	99.305847  
3842.000000	99.299330  
3841.000000	99.292659  
3840.000000	99.283798  
3839.000000	99.271982  
3838.000000	99.260831  
3837.000000	99.254961  
3836.000000	99.254357  
3835.000000	99.254831  
3834.000000	99.254033  
3833.000000	99.253623  
3832.000000	99.256906  
3831.000000	99.264982  
3830.000000	99.274174  
3829.000000	99.279230  
3828.000000	99.278840  
3827.000000	99.276132  
3826.000000	99.274828  
3825.000000	99.275457  
3824.000000	99.274920  
3823.000000	99.268771  
3822.000000	99.257244  
3821.000000	99.249740  
3820.000000	99.253340  
3819.000000	99.261942  
3818.000000	99.267075  
3817.000000	99.267088  
3816.000000	99.265296  
3815.000000	99.264615  
3814.000000	99.264290  
3813.000000	99.263017  
3812.000000	99.262462  
3811.000000	99.264596  
3810.000000	99.268296  
3809.000000	99.269638  
3808.000000	99.266630  
3807.000000	99.263079  
3806.000000	99.264808  
3805.000000	99.271240  
3804.000000	99.276038  
3803.000000	99.272007  
3802.000000	99.258377  
3801.000000	99.247169  
3800.000000	99.249863  
3799.000000	99.264372  
3798.000000	99.281528  
3797.000000	99.292444  
3796.000000	99.293423  
3795.000000	99.288090  
3794.000000	99.283069  
3793.000000	99.281221  
3792.000000	99.280044  
3791.000000	99.275537  
3790.000000	99.267671  
3789.000000	99.261705  
3788.000000	99.263119  
3787.000000	99.271999  
3786.000000	99.282714  
3785.000000	99.289177  
3784.000000	99.290223  
3783.000000	99.289574  
3782.000000	99.291095  
3781.000000	99.294992  
3780.000000	99.298234  
3779.000000	99.297680  
3778.000000	99.291844  
3777.000000	99.280421  
3776.000000	99.264188  
3775.000000	99.245138  
3774.000000	99.226464  
3773.000000	99.211820  
3772.000000	99.203534  
3771.000000	99.201762  
3770.000000	99.206807  
3769.000000	99.219994  
3768.000000	99.239618  
3767.000000	99.260057  
3766.000000	99.274145  
3765.000000	99.277224  
3764.000000	99.271170  
3763.000000	99.263447  
3762.000000	99.261858  
3761.000000	99.268994  
3760.000000	99.280832  
3759.000000	99.290253  
3758.000000	99.292401  
3757.000000	99.288540  
3756.000000	99.285877  
3755.000000	99.292537  
3754.000000	99.310277  
3753.000000	99.329627  
3752.000000	99.335600  
3751.000000	99.325147  
3750.000000	99.311126  
3749.000000	99.303568  
3748.000000	99.300986  
3747.000000	99.299481  
3746.000000	99.297671  
3745.000000	99.297945  
3744.000000	99.305305  
3743.000000	99.316687  
3742.000000	99.322018  
3741.000000	99.319485  
3740.000000	99.316538  
3739.000000	99.321719  
3738.000000	99.335242  
3737.000000	99.347744  
3736.000000	99.349559  
3735.000000	99.341049  
3734.000000	99.331113  
3733.000000	99.325664  
3732.000000	99.322811  
3731.000000	99.317100  
3730.000000	99.305778  
3729.000000	99.292426  
3728.000000	99.282857  
3727.000000	99.279901  
3726.000000	99.282952  
3725.000000	99.290079  
3724.000000	99.299110  
3723.000000	99.307196  
3722.000000	99.312103  
3721.000000	99.312413  
3720.000000	99.308708  
3719.000000	99.304317  
3718.000000	99.301666  
3717.000000	99.300757  
3716.000000	99.300833  
3715.000000	99.302269  
3714.000000	99.304992  
3713.000000	99.305096  
3712.000000	99.298159  
3711.000000	99.285287  
3710.000000	99.272242  
3709.000000	99.264144  
3708.000000	99.261836  
3707.000000	99.263040  
3706.000000	99.265170  
3705.000000	99.266706  
3704.000000	99.267003  
3703.000000	99.265313  
3702.000000	99.262574  
3701.000000	99.261043  
3700.000000	99.261394  
3699.000000	99.263042  
3698.000000	99.266185  
3697.000000	99.271825  
3696.000000	99.280464  
3695.000000	99.291395  
3694.000000	99.303126  
3693.000000	99.314441  
3692.000000	99.323512  
3691.000000	99.326259  
3690.000000	99.319397  
3689.000000	99.306765  
3688.000000	99.295995  
3687.000000	99.290252  
3686.000000	99.289112  
3685.000000	99.291274  
3684.000000	99.295616  
3683.000000	99.301568  
3682.000000	99.309785  
3681.000000	99.321917  
3680.000000	99.338743  
3679.000000	99.358045  
3678.000000	99.372701  
3677.000000	99.370448  
3676.000000	99.347946  
3675.000000	99.322728  
3674.000000	99.309561  
3673.000000	99.304196  
3672.000000	99.298651  
3671.000000	99.289971  
3670.000000	99.283407  
3669.000000	99.286820  
3668.000000	99.296950  
3667.000000	99.304062  
3666.000000	99.305245  
3665.000000	99.304948  
3664.000000	99.307565  
3663.000000	99.312672  
3662.000000	99.316803  
3661.000000	99.319144  
3660.000000	99.322620  
3659.000000	99.329308  
3658.000000	99.337038  
3657.000000	99.342312  
3656.000000	99.346459  
3655.000000	99.353526  
3654.000000	99.364846  
3653.000000	99.378970  
3652.000000	99.391862  
3651.000000	99.396588  
3650.000000	99.392145  
3649.000000	99.389817  
3648.000000	99.398575  
3647.000000	99.412730  
3646.000000	99.421199  
3645.000000	99.419202  
3644.000000	99.410697  
3643.000000	99.403598  
3642.000000	99.401709  
3641.000000	99.402203  
3640.000000	99.399823  
3639.000000	99.393347  
3638.000000	99.386381  
3637.000000	99.382615  
3636.000000	99.382723  
3635.000000	99.385240  
3634.000000	99.389305  
3633.000000	99.394990  
3632.000000	99.402274  
3631.000000	99.410517  
3630.000000	99.418623  
3629.000000	99.429171  
3628.000000	99.445705  
3627.000000	99.461380  
3626.000000	99.466995  
3625.000000	99.462849  
3624.000000	99.454491  
3623.000000	99.445779  
3622.000000	99.437741  
3621.000000	99.430983  
3620.000000	99.429150  
3619.000000	99.438705  
3618.000000	99.461634  
3617.000000	99.491214  
3616.000000	99.516500  
3615.000000	99.526272  
3614.000000	99.514737  
3613.000000	99.488915  
3612.000000	99.467242  
3611.000000	99.466290  
3610.000000	99.487335  
3609.000000	99.514759  
3608.000000	99.530091  
3607.000000	99.530052  
3606.000000	99.527428  
3605.000000	99.536290  
3604.000000	99.558785  
3603.000000	99.583059  
3602.000000	99.593402  
3601.000000	99.583369  
3600.000000	99.561525  
3599.000000	99.543641  
3598.000000	99.540255  
3597.000000	99.551744  
3596.000000	99.571237  
3595.000000	99.588955  
3594.000000	99.598165  
3593.000000	99.598579  
3592.000000	99.595027  
3591.000000	99.593586  
3590.000000	99.596253  
3589.000000	99.598585  
3588.000000	99.595189  
3587.000000	99.588281  
3586.000000	99.585236  
3585.000000	99.590854  
3584.000000	99.605029  
3583.000000	99.623890  
3582.000000	99.640260  
3581.000000	99.647534  
3580.000000	99.645349  
3579.000000	99.640385  
3578.000000	99.640061  
3577.000000	99.645113  
3576.000000	99.649034  
3575.000000	99.644558  
3574.000000	99.631149  
3573.000000	99.617234  
3572.000000	99.614850  
3571.000000	99.632274  
3570.000000	99.668806  
3569.000000	99.713362  
3568.000000	99.749220  
3567.000000	99.766691  
3566.000000	99.769957  
3565.000000	99.769188  
3564.000000	99.771183  
3563.000000	99.776969  
3562.000000	99.782966  
3561.000000	99.784607  
3560.000000	99.780513  
3559.000000	99.774613  
3558.000000	99.773453  
3557.000000	99.781704  
3556.000000	99.799647  
3555.000000	99.824022  
3554.000000	99.849692  
3553.000000	99.872147  
3552.000000	99.889632  
3551.000000	99.903815  
3550.000000	99.917574  
3549.000000	99.931443  
3548.000000	99.941787  
3547.000000	99.944532  
3546.000000	99.941224  
3545.000000	99.939316  
3544.000000	99.943916  
3543.000000	99.951359  
3542.000000	99.953110  
3541.000000	99.945482  
3540.000000	99.933810  
3539.000000	99.927507  
3538.000000	99.931637  
3537.000000	99.944222  
3536.000000	99.960493  
3535.000000	99.977929  
3534.000000	99.997042  
3533.000000	100.018775 
3532.000000	100.042642 
3531.000000	100.066067 
3530.000000	100.084237 
3529.000000	100.091220 
3528.000000	100.083759 
3527.000000	100.065818 
3526.000000	100.048001 
3525.000000	100.040372 
3524.000000	100.045490 
3523.000000	100.058800 
3522.000000	100.075016 
3521.000000	100.091919 
3520.000000	100.107670 
3519.000000	100.117972 
3518.000000	100.119151 
3517.000000	100.113740 
3516.000000	100.110100 
3515.000000	100.114870 
3514.000000	100.127250 
3513.000000	100.141180 
3512.000000	100.151987 
3511.000000	100.159632 
3510.000000	100.166541 
3509.000000	100.173698 
3508.000000	100.179638 
3507.000000	100.182673 
3506.000000	100.183001 
3505.000000	100.182407 
3504.000000	100.182157 
3503.000000	100.181768 
3502.000000	100.179909 
3501.000000	100.176021 
3500.000000	100.170902 
3499.000000	100.166439 
3498.000000	100.165826 
3497.000000	100.172830 
3496.000000	100.187993 
3495.000000	100.204493 
3494.000000	100.210690 
3493.000000	100.200210 
3492.000000	100.179269 
3491.000000	100.161834 
3490.000000	100.157417 
3489.000000	100.164763 
3488.000000	100.177371 
3487.000000	100.191600 
3486.000000	100.207049 
3485.000000	100.221372 
3484.000000	100.229071 
3483.000000	100.226082 
3482.000000	100.213985 
3481.000000	100.198971 
3480.000000	100.187880 
3479.000000	100.185243 
3478.000000	100.191425 
3477.000000	100.201645 
3476.000000	100.208493 
3475.000000	100.208144 
3474.000000	100.204118 
3473.000000	100.203304 
3472.000000	100.208804 
3471.000000	100.217932 
3470.000000	100.226563 
3469.000000	100.233132 
3468.000000	100.238021 
3467.000000	100.241635 
3466.000000	100.244591 
3465.000000	100.248313 
3464.000000	100.253603 
3463.000000	100.259486 
3462.000000	100.265517 
3461.000000	100.274587 
3460.000000	100.290736 
3459.000000	100.313272 
3458.000000	100.334940 
3457.000000	100.347867 
3456.000000	100.350265 
3455.000000	100.346119 
3454.000000	100.339548 
3453.000000	100.331754 
3452.000000	100.323937 
3451.000000	100.319805 
3450.000000	100.322706 
3449.000000	100.330590 
3448.000000	100.336447 
3447.000000	100.335047 
3446.000000	100.328324 
3445.000000	100.322564 
3444.000000	100.321298 
3443.000000	100.322718 
3442.000000	100.323435 
3441.000000	100.322983 
3440.000000	100.323728 
3439.000000	100.327663 
3438.000000	100.334676 
3437.000000	100.342876 
3436.000000	100.348784 
3435.000000	100.347848 
3434.000000	100.337525 
3433.000000	100.320880 
3432.000000	100.305983 
3431.000000	100.299929 
3430.000000	100.303476 
3429.000000	100.311551 
3428.000000	100.318247 
3427.000000	100.321383 
3426.000000	100.323145 
3425.000000	100.326998 
3424.000000	100.333386 
3423.000000	100.338259 
3422.000000	100.336670 
3421.000000	100.328133 
3420.000000	100.317084 
3419.000000	100.307731 
3418.000000	100.300067 
3417.000000	100.291871 
3416.000000	100.282979 
3415.000000	100.275833 
3414.000000	100.272531 
3413.000000	100.273264 
3412.000000	100.277779 
3411.000000	100.286481 
3410.000000	100.298576 
3409.000000	100.309811 
3408.000000	100.313923 
3407.000000	100.307839 
3406.000000	100.295123 
3405.000000	100.283102 
3404.000000	100.276091 
3403.000000	100.272138 
3402.000000	100.266848 
3401.000000	100.259095 
3400.000000	100.251685 
3399.000000	100.247074 
3398.000000	100.244156 
3397.000000	100.239057 
3396.000000	100.227876 
3395.000000	100.209214 
3394.000000	100.186256 
3393.000000	100.166910 
3392.000000	100.159618 
3391.000000	100.167060 
3390.000000	100.184099 
3389.000000	100.202050 
3388.000000	100.214383 
3387.000000	100.219211 
3386.000000	100.218885 
3385.000000	100.217960 
3384.000000	100.219305 
3383.000000	100.220514 
3382.000000	100.215780 
3381.000000	100.203177 
3380.000000	100.188949 
3379.000000	100.182233 
3378.000000	100.185708 
3377.000000	100.193370 
3376.000000	100.197555 
3375.000000	100.196294 
3374.000000	100.193196 
3373.000000	100.192169 
3372.000000	100.193880 
3371.000000	100.196831 
3370.000000	100.200088 
3369.000000	100.203889 
3368.000000	100.207857 
3367.000000	100.210069 
3366.000000	100.209238 
3365.000000	100.207469 
3364.000000	100.208933 
3363.000000	100.214965 
3362.000000	100.221898 
3361.000000	100.224973 
3360.000000	100.223018 
3359.000000	100.217698 
3358.000000	100.209551 
3357.000000	100.197565 
3356.000000	100.182676 
3355.000000	100.168889 
3354.000000	100.159574 
3353.000000	100.154392 
3352.000000	100.151209 
3351.000000	100.149748 
3350.000000	100.151687 
3349.000000	100.157597 
3348.000000	100.165205 
3347.000000	100.170972 
3346.000000	100.172810 
3345.000000	100.171423 
3344.000000	100.169965 
3343.000000	100.172047 
3342.000000	100.178402 
3341.000000	100.184295 
3340.000000	100.181381 
3339.000000	100.164674 
3338.000000	100.138764 
3337.000000	100.115754 
3336.000000	100.105470 
3335.000000	100.107731 
3334.000000	100.114431 
3333.000000	100.117183 
3332.000000	100.111294 
3331.000000	100.095148 
3330.000000	100.071196 
3329.000000	100.048705 
3328.000000	100.040422 
3327.000000	100.051708 
3326.000000	100.074163 
3325.000000	100.093280 
3324.000000	100.101742 
3323.000000	100.102669 
3322.000000	100.101233 
3321.000000	100.097727 
3320.000000	100.089793 
3319.000000	100.077459 
3318.000000	100.063152 
3317.000000	100.048812 
3316.000000	100.036090 
3315.000000	100.028643 
3314.000000	100.031091 
3313.000000	100.043993 
3312.000000	100.060534 
3311.000000	100.069483 
3310.000000	100.062639 
3309.000000	100.040516 
3308.000000	100.011294 
3307.000000	99.984018  
3306.000000	99.962583  
3305.000000	99.946035  
3304.000000	99.933434  
3303.000000	99.926471  
3302.000000	99.926712  
3301.000000	99.931571  
3300.000000	99.934635  
3299.000000	99.930534  
3298.000000	99.919615  
3297.000000	99.908254  
3296.000000	99.904670  
3295.000000	99.913014  
3294.000000	99.929557  
3293.000000	99.943909  
3292.000000	99.945468  
3291.000000	99.931145  
3290.000000	99.908038  
3289.000000	99.888060  
3288.000000	99.878977  
3287.000000	99.879723  
3286.000000	99.883334  
3285.000000	99.883167  
3284.000000	99.876312  
3283.000000	99.863331  
3282.000000	99.847133  
3281.000000	99.831912  
3280.000000	99.820956  
3279.000000	99.814671  
3278.000000	99.811580  
3277.000000	99.810991  
3276.000000	99.813038  
3275.000000	99.815992  
3274.000000	99.815843  
3273.000000	99.809764  
3272.000000	99.798401  
3271.000000	99.783708  
3270.000000	99.766353  
3269.000000	99.746907  
3268.000000	99.728206  
3267.000000	99.714443  
3266.000000	99.708160  
3265.000000	99.709026  
3264.000000	99.714739  
3263.000000	99.722121  
3262.000000	99.728472  
3261.000000	99.733326  
3260.000000	99.737709  
3259.000000	99.740477  
3258.000000	99.736919  
3257.000000	99.723156  
3256.000000	99.700858  
3255.000000	99.675481  
3254.000000	99.651056  
3253.000000	99.629295  
3252.000000	99.612442  
3251.000000	99.602524  
3250.000000	99.596907  
3249.000000	99.588207  
3248.000000	99.571007  
3247.000000	99.547396  
3246.000000	99.524941  
3245.000000	99.510762  
3244.000000	99.508260  
3243.000000	99.516898  
3242.000000	99.532316  
3241.000000	99.547011  
3240.000000	99.553115  
3239.000000	99.546061  
3238.000000	99.526428  
3237.000000	99.499263  
3236.000000	99.471472  
3235.000000	99.448229  
3234.000000	99.430689  
3233.000000	99.417147  
3232.000000	99.405985  
3231.000000	99.396411  
3230.000000	99.387121  
3229.000000	99.376510  
3228.000000	99.364559  
3227.000000	99.352694  
3226.000000	99.341436  
3225.000000	99.330583  
3224.000000	99.322432  
3223.000000	99.321684  
3222.000000	99.329552  
3221.000000	99.339613  
3220.000000	99.342457  
3219.000000	99.334326  
3218.000000	99.319155  
3217.000000	99.302554  
3216.000000	99.286015  
3215.000000	99.267435  
3214.000000	99.245754  
3213.000000	99.224383  
3212.000000	99.210390  
3211.000000	99.209556  
3210.000000	99.220544  
3209.000000	99.233712  
3208.000000	99.237070  
3207.000000	99.224417  
3206.000000	99.198131  
3205.000000	99.165699  
3204.000000	99.135213  
3203.000000	99.113040  
3202.000000	99.101911  
3201.000000	99.098672  
3200.000000	99.095136  
3199.000000	99.084328  
3198.000000	99.067172  
3197.000000	99.051882  
3196.000000	99.045333  
3195.000000	99.045240  
3194.000000	99.041739  
3193.000000	99.026775  
3192.000000	99.001348  
3191.000000	98.973429  
3190.000000	98.949925  
3189.000000	98.931707  
3188.000000	98.915618  
3187.000000	98.898889  
3186.000000	98.880379  
3185.000000	98.859323  
3184.000000	98.835498  
3183.000000	98.811040  
3182.000000	98.789669  
3181.000000	98.772376  
3180.000000	98.754940  
3179.000000	98.731860  
3178.000000	98.702624  
3177.000000	98.671869  
3176.000000	98.642937  
3175.000000	98.614160  
3174.000000	98.583211  
3173.000000	98.552291  
3172.000000	98.525463  
3171.000000	98.502186  
3170.000000	98.478178  
3169.000000	98.453408  
3168.000000	98.434858  
3167.000000	98.428596  
3166.000000	98.431505  
3165.000000	98.433288  
3164.000000	98.424671  
3163.000000	98.401981  
3162.000000	98.366770  
3161.000000	98.324918  
3160.000000	98.284656  
3159.000000	98.251301  
3158.000000	98.223671  
3157.000000	98.197971  
3156.000000	98.173802  
3155.000000	98.152782  
3154.000000	98.132463  
3153.000000	98.106929  
3152.000000	98.074586  
3151.000000	98.040664  
3150.000000	98.009679  
3149.000000	97.979398  
3148.000000	97.945661  
3147.000000	97.910264  
3146.000000	97.879768  
3145.000000	97.857184  
3144.000000	97.838230  
3143.000000	97.816014  
3142.000000	97.786871  
3141.000000	97.751250  
3140.000000	97.711516  
3139.000000	97.670447  
3138.000000	97.630825  
3137.000000	97.594831  
3136.000000	97.563359  
3135.000000	97.535831  
3134.000000	97.510166  
3133.000000	97.482587  
3132.000000	97.448186  
3131.000000	97.403526  
3130.000000	97.350604  
3129.000000	97.298334  
3128.000000	97.257645  
3127.000000	97.232171  
3126.000000	97.213305  
3125.000000	97.185896  
3124.000000	97.139717  
3123.000000	97.076071  
3122.000000	97.005168  
3121.000000	96.938741  
3120.000000	96.883254  
3119.000000	96.836221  
3118.000000	96.788155  
3117.000000	96.730767  
3116.000000	96.664557  
3115.000000	96.596706  
3114.000000	96.531486  
3113.000000	96.465778  
3112.000000	96.394876  
3111.000000	96.318810  
3110.000000	96.240190  
3109.000000	96.158924  
3108.000000	96.073343  
3107.000000	95.985456  
3106.000000	95.901146  
3105.000000	95.824693  
3104.000000	95.755958  
3103.000000	95.693282  
3102.000000	95.635726  
3101.000000	95.580665  
3100.000000	95.521448  
3099.000000	95.450611  
3098.000000	95.365911  
3097.000000	95.272664  
3096.000000	95.180606  
3095.000000	95.098465  
3094.000000	95.029492  
3093.000000	94.969767  
3092.000000	94.910871  
3091.000000	94.846518  
3090.000000	94.777986  
3089.000000	94.712164  
3088.000000	94.653752  
3087.000000	94.600701  
3086.000000	94.548449  
3085.000000	94.496883  
3084.000000	94.450316  
3083.000000	94.410978  
3082.000000	94.375443  
3081.000000	94.338742  
3080.000000	94.299916  
3079.000000	94.261850  
3078.000000	94.227130  
3077.000000	94.195875  
3076.000000	94.166700  
3075.000000	94.137861  
3074.000000	94.107999  
3073.000000	94.077493  
3072.000000	94.049131  
3071.000000	94.026230  
3070.000000	94.010322  
3069.000000	94.001163  
3068.000000	93.997441  
3067.000000	93.995970  
3066.000000	93.992126  
3065.000000	93.984353  
3064.000000	93.977637  
3063.000000	93.978996  
3062.000000	93.989253  
3061.000000	94.002706  
3060.000000	94.015601  
3059.000000	94.031051  
3058.000000	94.053134  
3057.000000	94.079297  
3056.000000	94.102462  
3055.000000	94.119316  
3054.000000	94.132730  
3053.000000	94.146065  
3052.000000	94.158639  
3051.000000	94.168224  
3050.000000	94.175968  
3049.000000	94.186906  
3048.000000	94.205472  
3047.000000	94.230880  
3046.000000	94.256846  
3045.000000	94.276074  
3044.000000	94.285750  
3043.000000	94.288830  
3042.000000	94.289932  
3041.000000	94.290757  
3040.000000	94.289979  
3039.000000	94.286536  
3038.000000	94.281108  
3037.000000	94.274128  
3036.000000	94.263605  
3035.000000	94.245840  
3034.000000	94.218483  
3033.000000	94.183271  
3032.000000	94.146140  
3031.000000	94.114411  
3030.000000	94.093105  
3029.000000	94.083348  
3028.000000	94.083078  
3027.000000	94.087749  
3026.000000	94.090793  
3025.000000	94.086363  
3024.000000	94.073723  
3023.000000	94.058225  
3022.000000	94.046411  
3021.000000	94.040566  
3020.000000	94.038540  
3019.000000	94.037557  
3018.000000	94.036582  
3017.000000	94.035809  
3016.000000	94.035451  
3015.000000	94.034959  
3014.000000	94.032857  
3013.000000	94.028728  
3012.000000	94.026282  
3011.000000	94.031951  
3010.000000	94.047069  
3009.000000	94.062495  
3008.000000	94.064760  
3007.000000	94.048394  
3006.000000	94.019864  
3005.000000	93.989062  
3004.000000	93.960102  
3003.000000	93.932052  
3002.000000	93.905751  
3001.000000	93.886850  
3000.000000	93.882858  
2999.000000	93.898980  
2998.000000	93.935258  
2997.000000	93.984501  
2996.000000	94.031928  
2995.000000	94.058937  
2994.000000	94.050452  
2993.000000	94.001895  
2992.000000	93.922536  
2991.000000	93.833109  
2990.000000	93.757664  
2989.000000	93.712700  
2988.000000	93.700848  
2987.000000	93.714096  
2986.000000	93.742977  
2985.000000	93.782813  
2984.000000	93.832493  
2983.000000	93.889918  
2982.000000	93.950413  
2981.000000	94.009198  
2980.000000	94.063972  
2979.000000	94.114166  
2978.000000	94.158158  
2977.000000	94.192112  
2976.000000	94.211634  
2975.000000	94.214554  
2974.000000	94.203750  
2973.000000	94.190169  
2972.000000	94.193094  
2971.000000	94.232566  
2970.000000	94.315522  
2969.000000	94.427987  
2968.000000	94.543594  
2967.000000	94.641830  
2966.000000	94.718448  
2965.000000	94.780426  
2964.000000	94.835184  
2963.000000	94.885298  
2962.000000	94.929202  
2961.000000	94.963485  
2960.000000	94.985814  
2959.000000	94.998040  
2958.000000	95.005476  
2957.000000	95.011080  
2956.000000	95.011224  
2955.000000	94.998969  
2954.000000	94.970960  
2953.000000	94.929605  
2952.000000	94.879649  
2951.000000	94.825150  
2950.000000	94.769852  
2949.000000	94.717994  
2948.000000	94.672978  
2947.000000	94.635174  
2946.000000	94.601428  
2945.000000	94.567423  
2944.000000	94.531719  
2943.000000	94.497637  
2942.000000	94.469777  
2941.000000	94.448433  
2940.000000	94.429693  
2939.000000	94.412050  
2938.000000	94.399943  
2937.000000	94.397901  
2936.000000	94.403630  
2935.000000	94.410662  
2934.000000	94.416566  
2933.000000	94.423941  
2932.000000	94.433845  
2931.000000	94.443448  
2930.000000	94.451815  
2929.000000	94.463269  
2928.000000	94.481769  
2927.000000	94.504830  
2926.000000	94.526529  
2925.000000	94.544834  
2924.000000	94.562763  
2923.000000	94.583543  
2922.000000	94.607999  
2921.000000	94.636072  
2920.000000	94.667263  
2919.000000	94.698584  
2918.000000	94.724912  
2917.000000	94.743578  
2916.000000	94.757788  
2915.000000	94.774124  
2914.000000	94.796619  
2913.000000	94.824071  
2912.000000	94.852651  
2911.000000	94.880081  
2910.000000	94.906596  
2909.000000	94.932527  
2908.000000	94.956694  
2907.000000	94.978193  
2906.000000	94.998917  
2905.000000	95.022318  
2904.000000	95.049090  
2903.000000	95.075273  
2902.000000	95.095630  
2901.000000	95.107956  
2900.000000	95.114643  
2899.000000	95.119670  
2898.000000	95.126158  
2897.000000	95.135424  
2896.000000	95.146401  
2895.000000	95.155180  
2894.000000	95.156302  
2893.000000	95.146512  
2892.000000	95.128337  
2891.000000	95.109970  
2890.000000	95.100388  
2889.000000	95.103085  
2888.000000	95.114099  
2887.000000	95.126518  
2886.000000	95.136701  
2885.000000	95.145548  
2884.000000	95.154289  
2883.000000	95.161308  
2882.000000	95.164170  
2881.000000	95.163312  
2880.000000	95.162041  
2879.000000	95.163408  
2878.000000	95.168277  
2877.000000	95.175693  
2876.000000	95.183487  
2875.000000	95.188872  
2874.000000	95.190356  
2873.000000	95.189578  
2872.000000	95.189976  
2871.000000	95.193170  
2870.000000	95.197616  
2869.000000	95.200844  
2868.000000	95.201705  
2867.000000	95.200242  
2866.000000	95.197463  
2865.000000	95.196412  
2864.000000	95.201271  
2863.000000	95.212337  
2862.000000	95.222176  
2861.000000	95.219866  
2860.000000	95.201444  
2859.000000	95.175399  
2858.000000	95.156577  
2857.000000	95.154274  
2856.000000	95.166030  
2855.000000	95.182014  
2854.000000	95.194089  
2853.000000	95.200960  
2852.000000	95.205833  
2851.000000	95.210689  
2850.000000	95.213389  
2849.000000	95.210303  
2848.000000	95.201440  
2847.000000	95.192302  
2846.000000	95.189647  
2845.000000	95.194781  
2844.000000	95.201405  
2843.000000	95.201211  
2842.000000	95.191972  
2841.000000	95.179454  
2840.000000	95.170907  
2839.000000	95.167290  
2838.000000	95.162717  
2837.000000	95.151144  
2836.000000	95.132608  
2835.000000	95.112833  
2834.000000	95.097543  
2833.000000	95.087542  
2832.000000	95.078624  
2831.000000	95.065624  
2830.000000	95.046551  
2829.000000	95.023083  
2828.000000	94.997449  
2827.000000	94.969680  
2826.000000	94.938810  
2825.000000	94.906274  
2824.000000	94.876265  
2823.000000	94.851593  
2822.000000	94.830203  
2821.000000	94.807264  
2820.000000	94.780459  
2819.000000	94.751638  
2818.000000	94.723268  
2817.000000	94.695346  
2816.000000	94.667377  
2815.000000	94.641967  
2814.000000	94.623665  
2813.000000	94.613667  
2812.000000	94.607592  
2811.000000	94.599939  
2810.000000	94.589709  
2809.000000	94.580191  
2808.000000	94.574224  
2807.000000	94.571789  
2806.000000	94.572271  
2805.000000	94.576691  
2804.000000	94.586354  
2803.000000	94.600675  
2802.000000	94.617724  
2801.000000	94.636000  
2800.000000	94.654022  
2799.000000	94.668582  
2798.000000	94.675271  
2797.000000	94.671495  
2796.000000	94.658658  
2795.000000	94.641603  
2794.000000	94.626614  
2793.000000	94.618950  
2792.000000	94.619770  
2791.000000	94.624296  
2790.000000	94.624520  
2789.000000	94.615552  
2788.000000	94.599422  
2787.000000	94.582196  
2786.000000	94.568220  
2785.000000	94.558169  
2784.000000	94.551460  
2783.000000	94.547969  
2782.000000	94.546585  
2781.000000	94.544206  
2780.000000	94.538289  
2779.000000	94.530051  
2778.000000	94.523564  
2777.000000	94.521559  
2776.000000	94.523559  
2775.000000	94.528432  
2774.000000	94.536769  
2773.000000	94.548867  
2772.000000	94.561285  
2771.000000	94.568170  
2770.000000	94.567155  
2769.000000	94.562762  
2768.000000	94.562704  
2767.000000	94.571347  
2766.000000	94.587456  
2765.000000	94.607155  
2764.000000	94.627117  
2763.000000	94.644574  
2762.000000	94.656251  
2761.000000	94.659483  
2760.000000	94.655006  
2759.000000	94.647787  
2758.000000	94.643710  
2757.000000	94.644549  
2756.000000	94.646234  
2755.000000	94.642824  
2754.000000	94.632232  
2753.000000	94.617430  
2752.000000	94.602308  
2751.000000	94.588107  
2750.000000	94.574884  
2749.000000	94.564473  
2748.000000	94.559360  
2747.000000	94.558869  
2746.000000	94.558794  
2745.000000	94.555238  
2744.000000	94.547072  
2743.000000	94.534281  
2742.000000	94.516341  
2741.000000	94.493673  
2740.000000	94.468863  
2739.000000	94.444407  
2738.000000	94.420219  
2737.000000	94.395137  
2736.000000	94.370021  
2735.000000	94.347258  
2734.000000	94.327550  
2733.000000	94.309442  
2732.000000	94.292541  
2731.000000	94.279374  
2730.000000	94.273025  
2729.000000	94.273734  
2728.000000	94.278481  
2727.000000	94.283432  
2726.000000	94.286821  
2725.000000	94.290425  
2724.000000	94.298388  
2723.000000	94.313475  
2722.000000	94.334361  
2721.000000	94.357772  
2720.000000	94.383245  
2719.000000	94.413503  
2718.000000	94.449038  
2717.000000	94.484952  
2716.000000	94.516125  
2715.000000	94.544819  
2714.000000	94.579791  
2713.000000	94.626760  
2712.000000	94.681474  
2711.000000	94.733186  
2710.000000	94.774004  
2709.000000	94.804373  
2708.000000	94.831260  
2707.000000	94.862678  
2706.000000	94.902949  
2705.000000	94.950808  
2704.000000	95.001069  
2703.000000	95.048825  
2702.000000	95.092811  
2701.000000	95.135010  
2700.000000	95.177503  
2699.000000	95.220411  
2698.000000	95.262635  
2697.000000	95.303331  
2696.000000	95.341879  
2695.000000	95.377204  
2694.000000	95.408571  
2693.000000	95.437470  
2692.000000	95.467876  
2691.000000	95.503672  
2690.000000	95.545630  
2689.000000	95.590971  
2688.000000	95.635676  
2687.000000	95.677071  
2686.000000	95.714964  
2685.000000	95.751240  
2684.000000	95.788297  
2683.000000	95.826796  
2682.000000	95.864668  
2681.000000	95.899233  
2680.000000	95.930702  
2679.000000	95.962562  
2678.000000	95.997596  
2677.000000	96.034378  
2676.000000	96.068809  
2675.000000	96.098410  
2674.000000	96.123376  
2673.000000	96.143597  
2672.000000	96.156899  
2671.000000	96.161481  
2670.000000	96.158857  
2669.000000	96.152803  
2668.000000	96.145809  
2667.000000	96.137978  
2666.000000	96.129229  
2665.000000	96.120622  
2664.000000	96.112113  
2663.000000	96.099936  
2662.000000	96.078558  
2661.000000	96.046885  
2660.000000	96.011925  
2659.000000	95.984222  
2658.000000	95.968300  
2657.000000	95.958358  
2656.000000	95.944822  
2655.000000	95.924847  
2654.000000	95.904972  
2653.000000	95.893493  
2652.000000	95.892451  
2651.000000	95.897727  
2650.000000	95.904339  
2649.000000	95.909228  
2648.000000	95.910582  
2647.000000	95.907915  
2646.000000	95.902842  
2645.000000	95.896960  
2644.000000	95.888540  
2643.000000	95.874050  
2642.000000	95.853706  
2641.000000	95.832453  
2640.000000	95.813504  
2639.000000	95.793675  
2638.000000	95.767836  
2637.000000	95.735824  
2636.000000	95.701043  
2635.000000	95.663204  
2634.000000	95.617058  
2633.000000	95.559702  
2632.000000	95.495913  
2631.000000	95.433851  
2630.000000	95.377215  
2629.000000	95.323499  
2628.000000	95.268750  
2627.000000	95.211966  
2626.000000	95.155372  
2625.000000	95.102446  
2624.000000	95.056056  
2623.000000	95.017006  
2622.000000	94.983153  
2621.000000	94.949988  
2620.000000	94.912864  
2619.000000	94.869710  
2618.000000	94.822681  
2617.000000	94.777503  
2616.000000	94.740217  
2615.000000	94.712869  
2614.000000	94.691240  
2613.000000	94.666868  
2612.000000	94.632501  
2611.000000	94.587180  
2610.000000	94.536855  
2609.000000	94.489775  
2608.000000	94.450653  
2607.000000	94.419013  
2606.000000	94.392736  
2605.000000	94.371802  
2604.000000	94.357244  
2603.000000	94.347010  
2602.000000	94.334931  
2601.000000	94.315407  
2600.000000	94.289197  
2599.000000	94.263778  
2598.000000	94.247315  
2597.000000	94.241958  
2596.000000	94.242863  
2595.000000	94.243691  
2594.000000	94.243062  
2593.000000	94.245849  
2592.000000	94.258425  
2591.000000	94.282512  
2590.000000	94.312963  
2589.000000	94.341484  
2588.000000	94.363992  
2587.000000	94.385717  
2586.000000	94.418044  
2585.000000	94.468022  
2584.000000	94.530697  
2583.000000	94.593711  
2582.000000	94.649767  
2581.000000	94.702207  
2580.000000	94.757526  
2579.000000	94.815657  
2578.000000	94.870707  
2577.000000	94.919278  
2576.000000	94.964074  
2575.000000	95.009647  
2574.000000	95.058393  
2573.000000	95.110976  
2572.000000	95.165963  
2571.000000	95.216582  
2570.000000	95.252014  
2569.000000	95.267181  
2568.000000	95.270692  
2567.000000	95.278878  
2566.000000	95.301001  
2565.000000	95.332835  
2564.000000	95.365014  
2563.000000	95.394111  
2562.000000	95.423421  
2561.000000	95.456066  
2560.000000	95.491780  
2559.000000	95.529965  
2558.000000	95.571012  
2557.000000	95.612003  
2556.000000	95.644472  
2555.000000	95.661834  
2554.000000	95.670106  
2553.000000	95.687145  
2552.000000	95.727173  
2551.000000	95.786107  
2550.000000	95.844432  
2549.000000	95.884615  
2548.000000	95.904008  
2547.000000	95.911263  
2546.000000	95.914195  
2545.000000	95.914219  
2544.000000	95.910739  
2543.000000	95.906608  
2542.000000	95.907692  
2541.000000	95.918526  
2540.000000	95.939192  
2539.000000	95.965080  
2538.000000	95.988455  
2537.000000	96.001312  
2536.000000	95.999168  
2535.000000	95.984008  
2534.000000	95.964241  
2533.000000	95.951096  
2532.000000	95.952552  
2531.000000	95.967639  
2530.000000	95.985592  
2529.000000	95.992994  
2528.000000	95.985397  
2527.000000	95.972774  
2526.000000	95.971111  
2525.000000	95.986337  
2524.000000	96.006966  
2523.000000	96.014257  
2522.000000	95.999692  
2521.000000	95.971439  
2520.000000	95.944414  
2519.000000	95.926532  
2518.000000	95.915427  
2517.000000	95.905894  
2516.000000	95.897417  
2515.000000	95.893775  
2514.000000	95.896289  
2513.000000	95.898441  
2512.000000	95.888513  
2511.000000	95.859597  
2510.000000	95.817554  
2509.000000	95.777294  
2508.000000	95.750088  
2507.000000	95.736158  
2506.000000	95.730588  
2505.000000	95.733203  
2504.000000	95.748489  
2503.000000	95.776445  
2502.000000	95.807933  
2501.000000	95.831542  
2500.000000	95.844170  
2499.000000	95.853928  
2498.000000	95.872979  
2497.000000	95.907113  
2496.000000	95.950935  
2495.000000	95.993025  
2494.000000	96.026778  
2493.000000	96.055850  
2492.000000	96.088174  
2491.000000	96.125977  
2490.000000	96.164034  
2489.000000	96.197188  
2488.000000	96.226444  
2487.000000	96.256714  
2486.000000	96.290623  
2485.000000	96.325365  
2484.000000	96.354244  
2483.000000	96.371645  
2482.000000	96.379158  
2481.000000	96.386922  
2480.000000	96.405157  
2479.000000	96.432667  
2478.000000	96.456864  
2477.000000	96.467339  
2476.000000	96.466455  
2475.000000	96.463576  
2474.000000	96.462026  
2473.000000	96.456652  
2472.000000	96.443857  
2471.000000	96.429746  
2470.000000	96.427087  
2469.000000	96.445697  
2468.000000	96.484775  
2467.000000	96.531364  
2466.000000	96.566589  
2465.000000	96.578497  
2464.000000	96.572477  
2463.000000	96.567541  
2462.000000	96.579526  
2461.000000	96.607949  
2460.000000	96.640348  
2459.000000	96.667524  
2458.000000	96.690984  
2457.000000	96.715192  
2456.000000	96.737205  
2455.000000	96.748568  
2454.000000	96.747204  
2453.000000	96.743212  
2452.000000	96.750464  
2451.000000	96.773931  
2450.000000	96.807111  
2449.000000	96.839886  
2448.000000	96.865819  
2447.000000	96.882754  
2446.000000	96.890931  
2445.000000	96.893216  
2444.000000	96.895442  
2443.000000	96.903820  
2442.000000	96.921108  
2441.000000	96.944675  
2440.000000	96.967520  
2439.000000	96.982402  
2438.000000	96.988037  
2437.000000	96.991871  
2436.000000	97.003967  
2435.000000	97.026394  
2434.000000	97.050777  
2433.000000	97.068096  
2432.000000	97.079090  
2431.000000	97.092228  
2430.000000	97.112130  
2429.000000	97.132694  
2428.000000	97.142743  
2427.000000	97.137713  
2426.000000	97.125215  
2425.000000	97.118739  
2424.000000	97.125142  
2423.000000	97.138250  
2422.000000	97.145492  
2421.000000	97.140704  
2420.000000	97.129569  
2419.000000	97.123331  
2418.000000	97.129073  
2417.000000	97.145607  
2416.000000	97.165963  
2415.000000	97.183219  
2414.000000	97.195831  
2413.000000	97.207603  
2412.000000	97.220930  
2411.000000	97.232035  
2410.000000	97.237683  
2409.000000	97.245752  
2408.000000	97.270880  
2407.000000	97.315075  
2406.000000	97.358996  
2405.000000	97.380060  
2404.000000	97.376845  
2403.000000	97.368966  
2402.000000	97.373893  
2401.000000	97.390884  
2400.000000	97.407975  
2399.000000	97.417495  
2398.000000	97.420718  
2397.000000	97.421633  
2396.000000	97.421690  
2395.000000	97.420422  
2394.000000	97.417947  
2393.000000	97.415540  
2392.000000	97.414441  
2391.000000	97.414814  
2390.000000	97.416301  
2389.000000	97.419555  
2388.000000	97.426157  
2387.000000	97.436425  
2386.000000	97.448553  
2385.000000	97.461216  
2384.000000	97.475667  
2383.000000	97.492909  
2382.000000	97.509349  
2381.000000	97.518605  
2380.000000	97.519178  
2379.000000	97.517860  
2378.000000	97.522911  
2377.000000	97.534647  
2376.000000	97.545742  
2375.000000	97.551595  
2374.000000	97.557568  
2373.000000	97.573233  
2372.000000	97.598134  
2371.000000	97.616415  
2370.000000	97.609789  
2369.000000	97.576646  
2368.000000	97.534297  
2367.000000	97.502140  
2366.000000	97.488121  
2365.000000	97.492643  
2364.000000	97.516834  
2363.000000	97.561448  
2362.000000	97.618437  
2361.000000	97.670341  
2360.000000	97.700291  
2359.000000	97.697764  
2358.000000	97.666206  
2357.000000	97.629040  
2356.000000	97.614860  
2355.000000	97.635513  
2354.000000	97.675273  
2353.000000	97.711448  
2352.000000	97.730516  
2351.000000	97.728627  
2350.000000	97.712072  
2349.000000	97.692934  
2348.000000	97.686158  
2347.000000	97.698908  
2346.000000	97.723029  
2345.000000	97.743337  
2344.000000	97.751797  
2343.000000	97.759982  
2342.000000	97.771390  
2341.000000	97.775227  
2340.000000	97.767497  
2339.000000	97.763085  
2338.000000	97.778426  
2337.000000	97.805146  
2336.000000	97.822287  
2335.000000	97.821514  
2334.000000	97.818112  
2333.000000	97.826258  
2332.000000	97.845993  
2331.000000	97.862159  
2330.000000	97.870402  
2329.000000	97.869696  
2328.000000	97.860046  
2327.000000	97.832513  
2326.000000	97.785705  
2325.000000	97.734920  
2324.000000	97.703458  
2323.000000	97.703659  
2322.000000	97.723242  
2321.000000	97.743556  
2320.000000	97.761337  
2319.000000	97.783380  
2318.000000	97.810512  
2317.000000	97.830713  
2316.000000	97.839676  
2315.000000	97.843352  
2314.000000	97.853597  
2313.000000	97.868621  
2312.000000	97.880274  
2311.000000	97.880560  
2310.000000	97.872661  
2309.000000	97.861083  
2308.000000	97.849829  
2307.000000	97.838247  
2306.000000	97.826939  
2305.000000	97.816312  
2304.000000	97.807881  
2303.000000	97.799233  
2302.000000	97.786454  
2301.000000	97.766522  
2300.000000	97.744436  
2299.000000	97.726849  
2298.000000	97.714744  
2297.000000	97.699844  
2296.000000	97.677485  
2295.000000	97.653604  
2294.000000	97.638799  
2293.000000	97.634096  
2292.000000	97.631180  
2291.000000	97.624702  
2290.000000	97.618734  
2289.000000	97.618811  
2288.000000	97.623491  
2287.000000	97.629180  
2286.000000	97.638620  
2285.000000	97.659095  
2284.000000	97.692006  
2283.000000	97.730164  
2282.000000	97.764975  
2281.000000	97.792804  
2280.000000	97.812890  
2279.000000	97.824321  
2278.000000	97.828366  
2277.000000	97.831291  
2276.000000	97.840755  
2275.000000	97.858708  
2274.000000	97.880021  
2273.000000	97.897266  
2272.000000	97.907009  
2271.000000	97.912844  
2270.000000	97.923601  
2269.000000	97.945509  
2268.000000	97.973438  
2267.000000	97.992037  
2266.000000	97.989568  
2265.000000	97.970529  
2264.000000	97.952196  
2263.000000	97.948349  
2262.000000	97.957289  
2261.000000	97.963993  
2260.000000	97.952958  
2259.000000	97.923420  
2258.000000	97.894199  
2257.000000	97.889008  
2256.000000	97.911123  
2255.000000	97.936319  
2254.000000	97.937271  
2253.000000	97.911581  
2252.000000	97.879211  
2251.000000	97.856614  
2250.000000	97.844721  
2249.000000	97.839479  
2248.000000	97.841318  
2247.000000	97.849749  
2246.000000	97.859483  
2245.000000	97.866449  
2244.000000	97.871674  
2243.000000	97.876909  
2242.000000	97.884545  
2241.000000	97.904100  
2240.000000	97.947703  
2239.000000	98.012177  
2238.000000	98.073318  
2237.000000	98.105398  
2236.000000	98.102262  
2235.000000	98.076451  
2234.000000	98.047384  
2233.000000	98.036077  
2232.000000	98.057959  
2231.000000	98.107042  
2230.000000	98.153323  
2229.000000	98.169355  
2228.000000	98.158601  
2227.000000	98.148379  
2226.000000	98.157823  
2225.000000	98.181971  
2224.000000	98.203564  
2223.000000	98.209350  
2222.000000	98.195015  
2221.000000	98.164951  
2220.000000	98.131630  
2219.000000	98.110907  
2218.000000	98.114832  
2217.000000	98.146498  
2216.000000	98.196839  
2215.000000	98.246535  
2214.000000	98.279646  
2213.000000	98.299460  
2212.000000	98.322015  
2211.000000	98.349375  
2210.000000	98.362096  
2209.000000	98.347637  
2208.000000	98.323225  
2207.000000	98.315041  
2206.000000	98.323897  
2205.000000	98.329036  
2204.000000	98.321414  
2203.000000	98.315623  
2202.000000	98.328301  
2201.000000	98.357947  
2200.000000	98.386968  
2199.000000	98.394078  
2198.000000	98.366733  
2197.000000	98.312822  
2196.000000	98.259134  
2195.000000	98.228704  
2194.000000	98.222073  
2193.000000	98.227469  
2192.000000	98.240920  
2191.000000	98.263323  
2190.000000	98.284911  
2189.000000	98.290735  
2188.000000	98.280350  
2187.000000	98.266815  
2186.000000	98.258559  
2185.000000	98.257799  
2184.000000	98.272484  
2183.000000	98.308693  
2182.000000	98.350674  
2181.000000	98.370355  
2180.000000	98.361815  
2179.000000	98.346300  
2178.000000	98.338113  
2177.000000	98.324676  
2176.000000	98.287887  
2175.000000	98.230039  
2174.000000	98.169392  
2173.000000	98.121393  
2172.000000	98.091106  
2171.000000	98.074326  
2170.000000	98.060498  
2169.000000	98.042101  
2168.000000	98.023138  
2167.000000	98.008597  
2166.000000	97.986008  
2165.000000	97.934413  
2164.000000	97.858882  
2163.000000	97.802112  
2162.000000	97.813247  
2161.000000	97.911048  
2160.000000	98.074486  
2159.000000	98.255133  
2158.000000	98.397368  
2157.000000	98.465205  
2156.000000	98.459740  
2155.000000	98.406440  
2154.000000	98.331735  
2153.000000	98.258697  
2152.000000	98.212470  
2151.000000	98.210334  
2150.000000	98.245100  
2149.000000	98.290870  
2148.000000	98.327167  
2147.000000	98.346875  
2146.000000	98.344387  
2145.000000	98.316230  
2144.000000	98.275461  
2143.000000	98.244411  
2142.000000	98.225702  
2141.000000	98.197044  
2140.000000	98.143896  
2139.000000	98.083184  
2138.000000	98.044189  
2137.000000	98.037221  
2136.000000	98.050833  
2135.000000	98.069448  
2134.000000	98.081079  
2133.000000	98.075344  
2132.000000	98.047908  
2131.000000	98.004496  
2130.000000	97.951930  
2129.000000	97.888477  
2128.000000	97.810305  
2127.000000	97.723455  
2126.000000	97.640112  
2125.000000	97.563699  
2124.000000	97.485870  
2123.000000	97.400049  
2122.000000	97.312120  
2121.000000	97.235781  
2120.000000	97.180799  
2119.000000	97.145539  
2118.000000	97.116130  
2117.000000	97.073900  
2116.000000	97.011670  
2115.000000	96.944622  
2114.000000	96.897506  
2113.000000	96.877796  
2112.000000	96.868976  
2111.000000	96.854778  
2110.000000	96.840027  
2109.000000	96.837865  
2108.000000	96.844958  
2107.000000	96.845235  
2106.000000	96.836667  
2105.000000	96.837834  
2104.000000	96.862345  
2103.000000	96.899945  
2102.000000	96.932741  
2101.000000	96.960886  
2100.000000	96.999967  
2099.000000	97.057228  
2098.000000	97.122866  
2097.000000	97.184775  
2096.000000	97.240338  
2095.000000	97.290067  
2094.000000	97.330185  
2093.000000	97.358951  
2092.000000	97.383426  
2091.000000	97.411861  
2090.000000	97.442551  
2089.000000	97.466684  
2088.000000	97.480723  
2087.000000	97.490031  
2086.000000	97.500709  
2085.000000	97.513251  
2084.000000	97.525444  
2083.000000	97.537634  
2082.000000	97.551978  
2081.000000	97.566853  
2080.000000	97.574458  
2079.000000	97.567271  
2078.000000	97.547916  
2077.000000	97.528625  
2076.000000	97.516821  
2075.000000	97.506358  
2074.000000	97.491857  
2073.000000	97.487810  
2072.000000	97.518861  
2071.000000	97.587436  
2070.000000	97.663593  
2069.000000	97.714167  
2068.000000	97.734061  
2067.000000	97.741932  
2066.000000	97.755030  
2065.000000	97.777815  
2064.000000	97.806249  
2063.000000	97.831555  
2062.000000	97.845118  
2061.000000	97.849135  
2060.000000	97.856167  
2059.000000	97.869787  
2058.000000	97.875754  
2057.000000	97.864422  
2056.000000	97.850554  
2055.000000	97.853170  
2054.000000	97.863952  
2053.000000	97.857631  
2052.000000	97.831708  
2051.000000	97.815114  
2050.000000	97.835056  
2049.000000	97.890118  
2048.000000	97.959723  
2047.000000	98.024109  
2046.000000	98.066749  
2045.000000	98.076981  
2044.000000	98.063662  
2043.000000	98.051035  
2042.000000	98.050766  
2041.000000	98.050321  
2040.000000	98.035209  
2039.000000	98.007833  
2038.000000	97.977595  
2037.000000	97.949221  
2036.000000	97.929446  
2035.000000	97.928733  
2034.000000	97.944307  
2033.000000	97.955182  
2032.000000	97.947783  
2031.000000	97.935928  
2030.000000	97.944965  
2029.000000	97.986136  
2028.000000	98.052954  
2027.000000	98.130177  
2026.000000	98.196864  
2025.000000	98.233430  
2024.000000	98.239638  
2023.000000	98.239103  
2022.000000	98.258431  
2021.000000	98.306978  
2020.000000	98.376452  
2019.000000	98.446827  
2018.000000	98.487573  
2017.000000	98.471747  
2016.000000	98.405024  
2015.000000	98.330845  
2014.000000	98.296300  
2013.000000	98.314899  
2012.000000	98.360350  
2011.000000	98.391648  
2010.000000	98.387738  
2009.000000	98.369620  
2008.000000	98.387967  
2007.000000	98.473592  
2006.000000	98.599164  
2005.000000	98.702724  
2004.000000	98.747710  
2003.000000	98.744495  
2002.000000	98.719153  
2001.000000	98.685124  
2000.000000	98.646222  
1999.000000	98.605680  
1998.000000	98.564049  
1997.000000	98.521727  
1996.000000	98.489513  
1995.000000	98.484593  
1994.000000	98.510378  
1993.000000	98.551684  
1992.000000	98.596374  
1991.000000	98.646725  
1990.000000	98.696491  
1989.000000	98.715075  
1988.000000	98.676398  
1987.000000	98.595579  
1986.000000	98.516726  
1985.000000	98.465655  
1984.000000	98.431579  
1983.000000	98.397272  
1982.000000	98.370824  
1981.000000	98.378917  
1980.000000	98.436500  
1979.000000	98.530041  
1978.000000	98.626382  
1977.000000	98.694570  
1976.000000	98.724026  
1975.000000	98.726203  
1974.000000	98.720573  
1973.000000	98.718638  
1972.000000	98.718137  
1971.000000	98.710770  
1970.000000	98.694742  
1969.000000	98.678915  
1968.000000	98.673580  
1967.000000	98.677159  
1966.000000	98.676030  
1965.000000	98.661717  
1964.000000	98.645025  
1963.000000	98.647202  
1962.000000	98.676285  
1961.000000	98.714009  
1960.000000	98.729817  
1959.000000	98.710259  
1958.000000	98.673844  
1957.000000	98.657178  
1956.000000	98.684658  
1955.000000	98.747910  
1954.000000	98.810963  
1953.000000	98.836479  
1952.000000	98.812632  
1951.000000	98.759592  
1950.000000	98.712338  
1949.000000	98.694154  
1948.000000	98.700612  
1947.000000	98.708814  
1946.000000	98.705137  
1945.000000	98.701108  
1944.000000	98.715543  
1943.000000	98.743637  
1942.000000	98.756247  
1941.000000	98.736564  
1940.000000	98.701984  
1939.000000	98.681366  
1938.000000	98.686786  
1937.000000	98.713721  
1936.000000	98.755654  
1935.000000	98.805577  
1934.000000	98.847242  
1933.000000	98.860922  
1932.000000	98.843581  
1931.000000	98.814285  
1930.000000	98.796349  
1929.000000	98.800335  
1928.000000	98.823006  
1927.000000	98.853845  
1926.000000	98.879831  
1925.000000	98.889636  
1924.000000	98.879410  
1923.000000	98.856103  
1922.000000	98.834431  
1921.000000	98.830386  
1920.000000	98.851798  
1919.000000	98.889873  
1918.000000	98.922363  
1917.000000	98.933695  
1916.000000	98.930140  
1915.000000	98.925005  
1914.000000	98.918979  
1913.000000	98.904064  
1912.000000	98.878267  
1911.000000	98.847432  
1910.000000	98.817483  
1909.000000	98.793953  
1908.000000	98.784232  
1907.000000	98.790695  
1906.000000	98.805717  
1905.000000	98.821684  
1904.000000	98.842308  
1903.000000	98.873820  
1902.000000	98.907472  
1901.000000	98.923092  
1900.000000	98.910037  
1899.000000	98.876747  
1898.000000	98.842156  
1897.000000	98.825471  
1896.000000	98.838708  
1895.000000	98.875765  
1894.000000	98.910121  
1893.000000	98.917739  
1892.000000	98.901930  
1891.000000	98.886715  
1890.000000	98.888451  
1889.000000	98.900775  
1888.000000	98.910464  
1887.000000	98.916293  
1886.000000	98.924743  
1885.000000	98.938094  
1884.000000	98.952414  
1883.000000	98.961644  
1882.000000	98.961397  
1881.000000	98.953385  
1880.000000	98.946189  
1879.000000	98.947758  
1878.000000	98.958040  
1877.000000	98.971441  
1876.000000	98.984047  
1875.000000	98.993897  
1874.000000	98.996620  
1873.000000	98.988398  
1872.000000	98.972505  
1871.000000	98.956320  
1870.000000	98.943324  
1869.000000	98.932981  
1868.000000	98.927331  
1867.000000	98.931148  
1866.000000	98.945570  
1865.000000	98.967052  
1864.000000	98.989682  
1863.000000	99.005546  
1862.000000	99.006596  
1861.000000	98.992620  
1860.000000	98.975376  
1859.000000	98.967415  
1858.000000	98.969096  
1857.000000	98.973213  
1856.000000	98.977192  
1855.000000	98.981878  
1854.000000	98.983706  
1853.000000	98.978862  
1852.000000	98.972424  
1851.000000	98.972878  
1850.000000	98.980069  
1849.000000	98.987414  
1848.000000	98.992993  
1847.000000	98.999335  
1846.000000	99.002369  
1845.000000	98.993409  
1844.000000	98.974400  
1843.000000	98.958568  
1842.000000	98.954447  
1841.000000	98.958848  
1840.000000	98.962114  
1839.000000	98.958837  
1838.000000	98.953520  
1837.000000	98.954436  
1836.000000	98.962783  
1835.000000	98.969732  
1834.000000	98.966274  
1833.000000	98.954655  
1832.000000	98.946525  
1831.000000	98.952482  
1830.000000	98.973364  
1829.000000	98.999498  
1828.000000	99.023327  
1827.000000	99.044105  
1826.000000	99.058817  
1825.000000	99.062276  
1824.000000	99.056869  
1823.000000	99.052217  
1822.000000	99.053636  
1821.000000	99.060018  
1820.000000	99.072288  
1819.000000	99.093591  
1818.000000	99.117354  
1817.000000	99.126405  
1816.000000	99.112214  
1815.000000	99.085239  
1814.000000	99.060786  
1813.000000	99.045132  
1812.000000	99.038176  
1811.000000	99.039506  
1810.000000	99.043349  
1809.000000	99.038749  
1808.000000	99.024041  
1807.000000	99.009325  
1806.000000	99.001660  
1805.000000	98.997446  
1804.000000	98.990757  
1803.000000	98.981813  
1802.000000	98.975369  
1801.000000	98.975658  
1800.000000	98.983894  
1799.000000	98.994605  
1798.000000	98.994316  
1797.000000	98.974007  
1796.000000	98.942035  
1795.000000	98.915725  
1794.000000	98.903695  
1793.000000	98.902405  
1792.000000	98.903189  
1791.000000	98.895807  
1790.000000	98.872756  
1789.000000	98.839289  
1788.000000	98.813160  
1787.000000	98.809467  
1786.000000	98.824884  
1785.000000	98.840758  
1784.000000	98.844877  
1783.000000	98.840055  
1782.000000	98.830439  
1781.000000	98.814179  
1780.000000	98.791100  
1779.000000	98.765989  
1778.000000	98.739979  
1777.000000	98.707599  
1776.000000	98.663622  
1775.000000	98.606821  
1774.000000	98.540437  
1773.000000	98.480035  
1772.000000	98.445163  
1771.000000	98.432856  
1770.000000	98.421435  
1769.000000	98.393202  
1768.000000	98.343570  
1767.000000	98.280876  
1766.000000	98.214290  
1765.000000	98.143724  
1764.000000	98.063618  
1763.000000	97.974963  
1762.000000	97.891343  
1761.000000	97.825580  
1760.000000	97.778062  
1759.000000	97.739013  
1758.000000	97.692339  
1757.000000	97.626719  
1756.000000	97.548212  
1755.000000	97.475669  
1754.000000	97.420723  
1753.000000	97.378098  
1752.000000	97.336897  
1751.000000	97.295566  
1750.000000	97.260663  
1749.000000	97.234569  
1748.000000	97.212466  
1747.000000	97.189840  
1746.000000	97.168902  
1745.000000	97.156465  
1744.000000	97.156995  
1743.000000	97.169832  
1742.000000	97.192252  
1741.000000	97.224244  
1740.000000	97.270650  
1739.000000	97.335377  
1738.000000	97.419453  
1737.000000	97.530966  
1736.000000	97.687772  
1735.000000	97.910082  
1734.000000	98.178008  
1733.000000	98.409375  
1732.000000	98.564442  
1731.000000	98.678377  
1730.000000	98.789939  
1729.000000	98.915844  
1728.000000	99.058572  
1727.000000	99.214803  
1726.000000	99.376856  
1725.000000	99.531060  
1724.000000	99.658930  
1723.000000	99.745313  
1722.000000	99.789479  
1721.000000	99.805405  
1720.000000	99.808020  
1719.000000	99.802084  
1718.000000	99.787693  
1717.000000	99.764443  
1716.000000	99.743480  
1715.000000	99.739027  
1714.000000	99.744066  
1713.000000	99.742324  
1712.000000	99.733529  
1711.000000	99.725939  
1710.000000	99.718124  
1709.000000	99.700918  
1708.000000	99.675020  
1707.000000	99.652271  
1706.000000	99.637272  
1705.000000	99.621161  
1704.000000	99.603231  
1703.000000	99.596906  
1702.000000	99.599751  
1701.000000	99.600684  
1700.000000	99.598919  
1699.000000	99.601110  
1698.000000	99.604194  
1697.000000	99.598631  
1696.000000	99.581722  
1695.000000	99.560839  
1694.000000	99.537046  
1693.000000	99.512356  
1692.000000	99.493663  
1691.000000	99.484374  
1690.000000	99.481694  
1689.000000	99.479446  
1688.000000	99.476003  
1687.000000	99.473331  
1686.000000	99.463175  
1685.000000	99.450554  
1684.000000	99.461020  
1683.000000	99.481029  
1682.000000	99.482747  
1681.000000	99.473329  
1680.000000	99.460161  
1679.000000	99.446599  
1678.000000	99.434792  
1677.000000	99.425039  
1676.000000	99.415765  
1675.000000	99.402352  
1674.000000	99.381668  
1673.000000	99.361095  
1672.000000	99.351347  
1671.000000	99.352266  
1670.000000	99.354859  
1669.000000	99.350933  
1668.000000	99.338633  
1667.000000	99.320610  
1666.000000	99.299645  
1665.000000	99.274994  
1664.000000	99.246910  
1663.000000	99.215874  
1662.000000	99.174192  
1661.000000	99.116589  
1660.000000	99.047738  
1659.000000	98.964564  
1658.000000	98.859801  
1657.000000	98.738575  
1656.000000	98.614816  
1655.000000	98.464710  
1654.000000	98.243838  
1653.000000	97.964940  
1652.000000	97.685310  
1651.000000	97.434470  
1650.000000	97.220857  
1649.000000	97.021187  
1648.000000	96.828470  
1647.000000	96.670415  
1646.000000	96.564402  
1645.000000	96.485167  
1644.000000	96.419064  
1643.000000	96.373074  
1642.000000	96.338068  
1641.000000	96.290491  
1640.000000	96.220769  
1639.000000	96.131899  
1638.000000	96.006082  
1637.000000	95.801311  
1636.000000	95.510981  
1635.000000	95.181515  
1634.000000	94.842417  
1633.000000	94.480446  
1632.000000	94.080849  
1631.000000	93.639370  
1630.000000	93.148420  
1629.000000	92.599104  
1628.000000	92.011474  
1627.000000	91.430726  
1626.000000	90.873249  
1625.000000	90.309438  
1624.000000	89.723625  
1623.000000	89.163384  
1622.000000	88.690055  
1621.000000	88.310553  
1620.000000	87.999093  
1619.000000	87.738606  
1618.000000	87.522716  
1617.000000	87.354124  
1616.000000	87.237950  
1615.000000	87.165162  
1614.000000	87.117903  
1613.000000	87.087673  
1612.000000	87.089403  
1611.000000	87.155105  
1610.000000	87.295852  
1609.000000	87.484473  
1608.000000	87.679450  
1607.000000	87.843247  
1606.000000	87.939966  
1605.000000	87.942343  
1604.000000	87.848024  
1603.000000	87.677484  
1602.000000	87.451070  
1601.000000	87.175178  
1600.000000	86.855633  
1599.000000	86.510562  
1598.000000	86.159427  
1597.000000	85.810629  
1596.000000	85.471447  
1595.000000	85.155133  
1594.000000	84.863110  
1593.000000	84.577135  
1592.000000	84.284943  
1591.000000	83.998333  
1590.000000	83.734268  
1589.000000	83.495429  
1588.000000	83.283642  
1587.000000	83.115261  
1586.000000	83.005923  
1585.000000	82.954600  
1584.000000	82.958917  
1583.000000	83.028360  
1582.000000	83.162717  
1581.000000	83.334780  
1580.000000	83.514620  
1579.000000	83.701190  
1578.000000	83.918430  
1577.000000	84.193876  
1576.000000	84.522420  
1575.000000	84.841398  
1574.000000	85.097942  
1573.000000	85.300593  
1572.000000	85.488511  
1571.000000	85.708000  
1570.000000	85.982984  
1569.000000	86.273668  
1568.000000	86.517096  
1567.000000	86.704128  
1566.000000	86.868302  
1565.000000	87.031984  
1564.000000	87.192120  
1563.000000	87.340838  
1562.000000	87.481109  
1561.000000	87.629238  
1560.000000	87.838058  
1559.000000	88.173075  
1558.000000	88.513129  
1557.000000	88.720337  
1556.000000	88.846748  
1555.000000	88.974282  
1554.000000	89.131893  
1553.000000	89.297348  
1552.000000	89.446098  
1551.000000	89.584146  
1550.000000	89.723077  
1549.000000	89.850898  
1548.000000	89.950333  
1547.000000	90.031959  
1546.000000	90.125482  
1545.000000	90.247653  
1544.000000	90.386657  
1543.000000	90.526511  
1542.000000	90.678879  
1541.000000	90.888194  
1540.000000	91.190292  
1539.000000	91.513580  
1538.000000	91.750385  
1537.000000	91.900123  
1536.000000	92.020315  
1535.000000	92.159683  
1534.000000	92.339330  
1533.000000	92.528186  
1532.000000	92.671569  
1531.000000	92.756866  
1530.000000	92.801748  
1529.000000	92.816094  
1528.000000	92.798528  
1527.000000	92.743256  
1526.000000	92.645217  
1525.000000	92.502976  
1524.000000	92.318702  
1523.000000	92.092600  
1522.000000	91.843003  
1521.000000	91.620024  
1520.000000	91.460871  
1519.000000	91.364554  
1518.000000	91.326615  
1517.000000	91.347658  
1516.000000	91.410717  
1515.000000	91.484264  
1514.000000	91.552760  
1513.000000	91.612107  
1512.000000	91.653187  
1511.000000	91.670874  
1510.000000	91.670563  
1509.000000	91.657840  
1508.000000	91.638587  
1507.000000	91.656802  
1506.000000	91.732695  
1505.000000	91.815240  
1504.000000	91.884371  
1503.000000	91.964228  
1502.000000	92.075496  
1501.000000	92.223393  
1500.000000	92.399633  
1499.000000	92.599847  
1498.000000	92.834530  
1497.000000	93.108816  
1496.000000	93.395015  
1495.000000	93.654168  
1494.000000	93.875749  
1493.000000	94.076661  
1492.000000	94.283486  
1491.000000	94.521092  
1490.000000	94.786448  
1489.000000	95.034496  
1488.000000	95.233706  
1487.000000	95.401365  
1486.000000	95.557345  
1485.000000	95.697400  
1484.000000	95.816083  
1483.000000	95.923600  
1482.000000	96.031738  
1481.000000	96.134636  
1480.000000	96.221785  
1479.000000	96.298577  
1478.000000	96.374319  
1477.000000	96.443129  
1476.000000	96.493125  
1475.000000	96.524482  
1474.000000	96.538286  
1473.000000	96.524204  
1472.000000	96.467171  
1471.000000	96.362923  
1470.000000	96.213747  
1469.000000	96.017765  
1468.000000	95.771125  
1467.000000	95.470961  
1466.000000	95.114005  
1465.000000	94.722127  
1464.000000	94.360260  
1463.000000	94.080549  
1462.000000	93.867454  
1461.000000	93.657581  
1460.000000	93.379019  
1459.000000	92.957596  
1458.000000	92.341900  
1457.000000	91.607074  
1456.000000	90.972625  
1455.000000	90.588609  
1454.000000	90.456710  
1453.000000	90.537178  
1452.000000	90.789245  
1451.000000	91.152301  
1450.000000	91.561756  
1449.000000	91.973753  
1448.000000	92.355835  
1447.000000	92.684664  
1446.000000	92.965292  
1445.000000	93.227209  
1444.000000	93.499129  
1443.000000	93.796809  
1442.000000	94.121866  
1441.000000	94.456835  
1440.000000	94.772485  
1439.000000	95.054709  
1438.000000	95.314423  
1437.000000	95.555713  
1436.000000	95.742945  
1435.000000	95.853428  
1434.000000	95.919432  
1433.000000	95.974808  
1432.000000	96.020943  
1431.000000	96.047711  
1430.000000	96.055590  
1429.000000	96.042883  
1428.000000	95.996080  
1427.000000	95.909568  
1426.000000	95.787254  
1425.000000	95.621086  
1424.000000	95.390155  
1423.000000	95.087652  
1422.000000	94.713417  
1421.000000	94.226440  
1420.000000	93.557707  
1419.000000	92.711864  
1418.000000	91.795177  
1417.000000	90.881770  
1416.000000	89.977376  
1415.000000	89.100852  
1414.000000	88.308107  
1413.000000	87.666503  
1412.000000	87.242682  
1411.000000	87.086055  
1410.000000	87.192968  
1409.000000	87.511013  
1408.000000	87.988317  
1407.000000	88.593079  
1406.000000	89.291560  
1405.000000	90.030987  
1404.000000	90.742649  
1403.000000	91.373045  
1402.000000	91.919429  
1401.000000	92.420054  
1400.000000	92.908955  
1399.000000	93.378363  
1398.000000	93.796326  
1397.000000	94.154606  
1396.000000	94.470733  
1395.000000	94.756658  
1394.000000	95.008477  
1393.000000	95.220648  
1392.000000	95.393495  
1391.000000	95.531304  
1390.000000	95.640254  
1389.000000	95.727366  
1388.000000	95.797163  
1387.000000	95.848387  
1386.000000	95.875345  
1385.000000	95.871537  
1384.000000	95.827996  
1383.000000	95.730469  
1382.000000	95.560811  
1381.000000	95.305171  
1380.000000	94.977402  
1379.000000	94.639304  
1378.000000	94.373497  
1377.000000	94.216634  
1376.000000	94.130772  
1375.000000	94.040922  
1374.000000	93.885762  
1373.000000	93.634285  
1372.000000	93.270592  
1371.000000	92.779401  
1370.000000	92.145208  
1369.000000	91.362608  
1368.000000	90.455015  
1367.000000	89.487016  
1366.000000	88.541078  
1365.000000	87.678104  
1364.000000	86.935330  
1363.000000	86.355815  
1362.000000	85.986575  
1361.000000	85.832754  
1360.000000	85.840418  
1359.000000	85.937324  
1358.000000	86.082683  
1357.000000	86.285427  
1356.000000	86.580719  
1355.000000	86.986797  
1354.000000	87.483308  
1353.000000	88.028829  
1352.000000	88.590040  
1351.000000	89.147901  
1350.000000	89.687141  
1349.000000	90.195404  
1348.000000	90.668220  
1347.000000	91.109375  
1346.000000	91.526623  
1345.000000	91.926258  
1344.000000	92.307328  
1343.000000	92.662194  
1342.000000	92.986966  
1341.000000	93.289668  
1340.000000	93.581927  
1339.000000	93.863630  
1338.000000	94.125181  
1337.000000	94.363372  
1336.000000	94.584484  
1335.000000	94.794877  
1334.000000	94.997377  
1333.000000	95.194899  
1332.000000	95.389947  
1331.000000	95.580146  
1330.000000	95.759903  
1329.000000	95.926408  
1328.000000	96.079061  
1327.000000	96.214701  
1326.000000	96.329380  
1325.000000	96.423766  
1324.000000	96.499721  
1323.000000	96.552983  
1322.000000	96.572767  
1321.000000	96.545966  
1320.000000	96.458862  
1319.000000	96.298888  
1318.000000	96.057884  
1317.000000	95.728132  
1316.000000	95.290569  
1315.000000	94.711136  
1314.000000	93.955903  
1313.000000	93.015405  
1312.000000	91.920221  
1311.000000	90.738726  
1310.000000	89.563659  
1309.000000	88.500413  
1308.000000	87.656162  
1307.000000	87.115140  
1306.000000	86.908164  
1305.000000	87.007699  
1304.000000	87.348494  
1303.000000	87.847131  
1302.000000	88.416194  
1301.000000	88.984221  
1300.000000	89.511173  
1299.000000	89.985004  
1298.000000	90.407826  
1297.000000	90.787379  
1296.000000	91.133812  
1295.000000	91.454450  
1294.000000	91.749637  
1293.000000	92.016239  
1292.000000	92.255194  
1291.000000	92.473544  
1290.000000	92.678895  
1289.000000	92.873994  
1288.000000	93.058427  
1287.000000	93.234779  
1286.000000	93.409944  
1285.000000	93.588053  
1284.000000	93.764053  
1283.000000	93.928214  
1282.000000	94.077110  
1281.000000	94.216748  
1280.000000	94.354333  
1279.000000	94.491169  
1278.000000	94.625396  
1277.000000	94.756848  
1276.000000	94.886070  
1275.000000	95.012301  
1274.000000	95.136298  
1273.000000	95.261827  
1272.000000	95.390032  
1271.000000	95.514532  
1270.000000	95.626534  
1269.000000	95.723819  
1268.000000	95.811485  
1267.000000	95.895423  
1266.000000	95.977940  
1265.000000	96.058092  
1264.000000	96.133990  
1263.000000	96.205516  
1262.000000	96.275453  
1261.000000	96.346586  
1260.000000	96.417913  
1259.000000	96.486248  
1258.000000	96.551601  
1257.000000	96.616995  
1256.000000	96.683029  
1255.000000	96.746840  
1254.000000	96.806564  
1253.000000	96.861882  
1252.000000	96.909493  
1251.000000	96.943416  
1250.000000	96.961158  
1249.000000	96.964004  
1248.000000	96.949273  
1247.000000	96.907499  
1246.000000	96.828355  
1245.000000	96.701722  
1244.000000	96.509029  
1243.000000	96.219405  
1242.000000	95.800930  
1241.000000	95.239556  
1240.000000	94.556653  
1239.000000	93.820405  
1238.000000	93.138439  
1237.000000	92.624152  
1236.000000	92.353478  
1235.000000	92.337176  
1234.000000	92.524919  
1233.000000	92.839262  
1232.000000	93.212933  
1231.000000	93.605480  
1230.000000	94.000868  
1229.000000	94.396373  
1228.000000	94.788880  
1227.000000	95.168495  
1226.000000	95.526656  
1225.000000	95.865768  
1224.000000	96.189915  
1223.000000	96.482493  
1222.000000	96.701292  
1221.000000	96.806695  
1220.000000	96.802191  
1219.000000	96.750356  
1218.000000	96.742908  
1217.000000	96.842723  
1216.000000	97.046826  
1215.000000	97.300731  
1214.000000	97.544679  
1213.000000	97.746853  
1212.000000	97.902694  
1211.000000	98.019904  
1210.000000	98.110236  
1209.000000	98.185398  
1208.000000	98.251912  
1207.000000	98.311795  
1206.000000	98.369679  
1205.000000	98.434168  
1204.000000	98.510833  
1203.000000	98.599833  
1202.000000	98.701932  
1201.000000	98.819531  
1200.000000	98.948502  
1199.000000	99.076730  
1198.000000	99.196825  
1197.000000	99.315214  
1196.000000	99.443597  
1195.000000	99.585527  
1194.000000	99.734617  
1193.000000	99.880909  
1192.000000	100.015430 
1191.000000	100.134323 
1190.000000	100.243238 
1189.000000	100.352825 
1188.000000	100.465950 
1187.000000	100.573866 
1186.000000	100.668066 
1185.000000	100.750681 
1184.000000	100.829982 
1183.000000	100.911159 
1182.000000	100.994734 
1181.000000	101.078732 
1180.000000	101.158859 
1179.000000	101.230903 
1178.000000	101.295622 
1177.000000	101.356859 
1176.000000	101.413410 
1175.000000	101.458181 
1174.000000	101.486960 
1173.000000	101.502357 
1172.000000	101.507635 
1171.000000	101.503312 
1170.000000	101.491608 
1169.000000	101.477487 
1168.000000	101.462481 
1167.000000	101.442385 
1166.000000	101.412270 
1165.000000	101.368360 
1164.000000	101.304237 
1163.000000	101.211130 
1162.000000	101.082230 
1161.000000	100.910141 
1160.000000	100.680261 
1159.000000	100.375114 
1158.000000	99.987811  
1157.000000	99.526915  
1156.000000	99.011756  
1155.000000	98.474150  
1154.000000	97.965512  
1153.000000	97.549894  
1152.000000	97.277706  
1151.000000	97.160015  
1150.000000	97.168278  
1149.000000	97.261745  
1148.000000	97.414419  
1147.000000	97.615555  
1146.000000	97.851094  
1145.000000	98.093257  
1144.000000	98.310798  
1143.000000	98.487479  
1142.000000	98.628947  
1141.000000	98.751641  
1140.000000	98.867320  
1139.000000	98.978799  
1138.000000	99.084546  
1137.000000	99.180424  
1136.000000	99.258714  
1135.000000	99.313535  
1134.000000	99.349539  
1133.000000	99.379760  
1132.000000	99.412692  
1131.000000	99.445581  
1130.000000	99.471146  
1129.000000	99.484986  
1128.000000	99.482964  
1127.000000	99.455989  
1126.000000	99.392336  
1125.000000	99.283425  
1124.000000	99.123591  
1123.000000	98.903232  
1122.000000	98.600499  
1121.000000	98.174725  
1120.000000	97.567148  
1119.000000	96.720360  
1118.000000	95.621806  
1117.000000	94.352412  
1116.000000	93.098411  
1115.000000	92.089519  
1114.000000	91.486529  
1113.000000	91.314418  
1112.000000	91.498313  
1111.000000	91.939269  
1110.000000	92.547868  
1109.000000	93.238488  
1108.000000	93.930740  
1107.000000	94.569424  
1106.000000	95.134619  
1105.000000	95.625661  
1104.000000	96.040679  
1103.000000	96.376714  
1102.000000	96.641097  
1101.000000	96.851407  
1100.000000	97.024971  
1099.000000	97.176819  
1098.000000	97.319531  
1097.000000	97.457404  
1096.000000	97.582434  
1095.000000	97.684611  
1094.000000	97.765277  
1093.000000	97.834794  
1092.000000	97.900964  
1091.000000	97.966703  
1090.000000	98.034327  
1089.000000	98.102868  
1088.000000	98.164099  
1087.000000	98.210812  
1086.000000	98.247964  
1085.000000	98.287317  
1084.000000	98.333002  
1083.000000	98.381323  
1082.000000	98.432551  
1081.000000	98.491784  
1080.000000	98.557060  
1079.000000	98.616648  
1078.000000	98.661739  
1077.000000	98.695564  
1076.000000	98.728386  
1075.000000	98.769665  
1074.000000	98.825184  
1073.000000	98.894293  
1072.000000	98.968205  
1071.000000	99.036711  
1070.000000	99.097671  
1069.000000	99.154930  
1068.000000	99.208279  
1067.000000	99.252970  
1066.000000	99.288460  
1065.000000	99.319060  
1064.000000	99.345357  
1063.000000	99.364252  
1062.000000	99.379917  
1061.000000	99.406206  
1060.000000	99.453382  
1059.000000	99.516491  
1058.000000	99.579440  
1057.000000	99.627485  
1056.000000	99.655762  
1055.000000	99.672030  
1054.000000	99.693553  
1053.000000	99.736242  
1052.000000	99.804414  
1051.000000	99.894652  
1050.000000	100.009533 
1049.000000	100.160169 
1048.000000	100.352682 
1047.000000	100.579996 
1046.000000	100.831563 
1045.000000	101.104881 
1044.000000	101.401362 
1043.000000	101.713588 
1042.000000	102.021577 
1041.000000	102.301483 
1040.000000	102.535667 
1039.000000	102.715506 
1038.000000	102.837900 
1037.000000	102.902077 
1036.000000	102.912319 
1035.000000	102.881197 
1034.000000	102.821590 
1033.000000	102.733527 
1032.000000	102.607271 
1031.000000	102.440913 
1030.000000	102.243269 
1029.000000	102.015642 
1028.000000	101.744680 
1027.000000	101.419176 
1026.000000	101.037323 
1025.000000	100.586153 
1024.000000	100.030925 
1023.000000	99.346634  
1022.000000	98.557048  
1021.000000	97.727379  
1020.000000	96.913748  
1019.000000	96.117223  
1018.000000	95.281300  
1017.000000	94.344849  
1016.000000	93.323473  
1015.000000	92.350475  
1014.000000	91.621671  
1013.000000	91.281199  
1012.000000	91.351262  
1011.000000	91.749739  
1010.000000	92.351036  
1009.000000	93.034774  
1008.000000	93.708124  
1007.000000	94.315260  
1006.000000	94.837360  
1005.000000	95.276851  
1004.000000	95.640993  
1003.000000	95.946165  
1002.000000	96.226480  
1001.000000	96.513872  
1000.000000	96.803957  
999.000000	 97.056787  
998.000000	 97.239084  
997.000000	 97.355971  
996.000000	 97.437436  
995.000000	 97.507840  
994.000000	 97.576313  
993.000000	 97.644310  
992.000000	 97.709824  
991.000000	 97.767841  
990.000000	 97.815186  
989.000000	 97.854237  
988.000000	 97.888555  
987.000000	 97.917480  
986.000000	 97.937313  
985.000000	 97.945260  
984.000000	 97.942186  
983.000000	 97.935541  
982.000000	 97.938478  
981.000000	 97.959591  
980.000000	 97.993365  
979.000000	 98.027337  
978.000000	 98.059191  
977.000000	 98.099718  
976.000000	 98.158122  
975.000000	 98.232398  
974.000000	 98.315858  
973.000000	 98.403669  
972.000000	 98.488285  
971.000000	 98.557345  
970.000000	 98.604031  
969.000000	 98.634537  
968.000000	 98.658725  
967.000000	 98.677124  
966.000000	 98.682603  
965.000000	 98.672063  
964.000000	 98.652009  
963.000000	 98.634466  
962.000000	 98.629531  
961.000000	 98.638349  
960.000000	 98.650215  
959.000000	 98.649292  
958.000000	 98.627221  
957.000000	 98.587191  
956.000000	 98.534614  
955.000000	 98.468430  
954.000000	 98.384710  
953.000000	 98.285619  
952.000000	 98.181652  
951.000000	 98.086464  
950.000000	 98.010585  
949.000000	 97.957466  
948.000000	 97.922986  
947.000000	 97.899510  
946.000000	 97.882046  
945.000000	 97.870700  
944.000000	 97.867859  
943.000000	 97.874380  
942.000000	 97.887688  
941.000000	 97.901530  
940.000000	 97.908932  
939.000000	 97.909165  
938.000000	 97.911557  
937.000000	 97.927567  
936.000000	 97.957078  
935.000000	 97.985330  
934.000000	 97.995115  
933.000000	 97.980363  
932.000000	 97.947404  
931.000000	 97.905843  
930.000000	 97.858513  
929.000000	 97.796294  
928.000000	 97.699592  
927.000000	 97.545037  
926.000000	 97.311052  
925.000000	 96.977255  
924.000000	 96.523981  
923.000000	 95.943588  
922.000000	 95.262740  
921.000000	 94.560033  
920.000000	 93.960829  
919.000000	 93.598239  
918.000000	 93.551943  
917.000000	 93.807277  
916.000000	 94.268000  
915.000000	 94.809151  
914.000000	 95.331170  
913.000000	 95.785799  
912.000000	 96.169008  
911.000000	 96.497788  
910.000000	 96.788320  
909.000000	 97.043961  
908.000000	 97.257968  
907.000000	 97.428036  
906.000000	 97.565208  
905.000000	 97.683572  
904.000000	 97.784196  
903.000000	 97.856510  
902.000000	 97.894707  
901.000000	 97.906342  
900.000000	 97.905719  
899.000000	 97.905328  
898.000000	 97.911697  
897.000000	 97.922930  
896.000000	 97.930926  
895.000000	 97.932434  
894.000000	 97.935463  
893.000000	 97.947306  
892.000000	 97.959773  
891.000000	 97.957242  
890.000000	 97.938662  
889.000000	 97.919911  
888.000000	 97.913157  
887.000000	 97.915653  
886.000000	 97.921617  
885.000000	 97.932764  
884.000000	 97.950932  
883.000000	 97.971094  
882.000000	 97.990028  
881.000000	 98.013974  
880.000000	 98.049440  
879.000000	 98.093031  
878.000000	 98.138495  
877.000000	 98.187279  
876.000000	 98.242085  
875.000000	 98.294224  
874.000000	 98.327384  
873.000000	 98.332805  
872.000000	 98.314726  
871.000000	 98.284927  
870.000000	 98.258498  
869.000000	 98.249510  
868.000000	 98.260006  
867.000000	 98.272166  
866.000000	 98.259542  
865.000000	 98.210888  
864.000000	 98.140049  
863.000000	 98.068818  
862.000000	 97.998975  
861.000000	 97.900946  
860.000000	 97.729329  
859.000000	 97.447812  
858.000000	 97.035943  
857.000000	 96.470937  
856.000000	 95.712991  
855.000000	 94.726669  
854.000000	 93.530253  
853.000000	 92.228200  
852.000000	 90.993075  
851.000000	 90.002801  
850.000000	 89.372555  
849.000000	 89.131106  
848.000000	 89.250526  
847.000000	 89.681329  
846.000000	 90.355864  
845.000000	 91.178203  
844.000000	 92.033267  
843.000000	 92.818844  
842.000000	 93.478083  
841.000000	 94.006358  
840.000000	 94.429081  
839.000000	 94.774372  
838.000000	 95.060601  
837.000000	 95.296887  
836.000000	 95.488513  
835.000000	 95.644657  
834.000000	 95.782164  
833.000000	 95.916801  
832.000000	 96.049346  
831.000000	 96.166736  
830.000000	 96.261443  
829.000000	 96.344655  
828.000000	 96.434831  
827.000000	 96.537234  
826.000000	 96.641159  
825.000000	 96.736385  
824.000000	 96.827093  
823.000000	 96.928264  
822.000000	 97.048819  
821.000000	 97.176316  
820.000000	 97.279770  
819.000000	 97.334004  
818.000000	 97.343717  
817.000000	 97.338446  
816.000000	 97.341949  
815.000000	 97.352634  
814.000000	 97.356204  
813.000000	 97.348652  
812.000000	 97.338724  
811.000000	 97.334045  
810.000000	 97.336661  
809.000000	 97.352328  
808.000000	 97.393433  
807.000000	 97.465820  
806.000000	 97.555729  
805.000000	 97.636635  
804.000000	 97.692773  
803.000000	 97.734980  
802.000000	 97.788589  
801.000000	 97.861850  
800.000000	 97.930650  
799.000000	 97.963511  
798.000000	 97.962265  
797.000000	 97.966505  
796.000000	 98.010717  
795.000000	 98.083721  
794.000000	 98.137117  
793.000000	 98.130207  
792.000000	 98.061538  
791.000000	 97.962062  
790.000000	 97.867049  
789.000000	 97.793080  
788.000000	 97.732293  
787.000000	 97.662647  
786.000000	 97.564993  
785.000000	 97.433761  
784.000000	 97.274134  
783.000000	 97.091343  
782.000000	 96.881442  
781.000000	 96.626964  
780.000000	 96.299098  
779.000000	 95.869815  
778.000000	 95.329924  
777.000000	 94.698722  
776.000000	 94.017288  
775.000000	 93.335134  
774.000000	 92.704528  
773.000000	 92.184022  
772.000000	 91.837609  
771.000000	 91.716668  
770.000000	 91.834219  
769.000000	 92.157049  
768.000000	 92.623577  
767.000000	 93.169818  
766.000000	 93.745731  
765.000000	 94.315696  
764.000000	 94.847418  
763.000000	 95.306282  
762.000000	 95.668876  
761.000000	 95.941151  
760.000000	 96.153329  
759.000000	 96.333292  
758.000000	 96.491194  
757.000000	 96.631802  
756.000000	 96.769896  
755.000000	 96.920211  
754.000000	 97.074413  
753.000000	 97.202333  
752.000000	 97.283685  
751.000000	 97.332376  
750.000000	 97.381562  
749.000000	 97.447978  
748.000000	 97.520708  
747.000000	 97.585655  
746.000000	 97.649304  
745.000000	 97.728572  
744.000000	 97.822652  
743.000000	 97.907483  
742.000000	 97.961157  
741.000000	 97.987790  
740.000000	 98.012466  
739.000000	 98.057180  
738.000000	 98.124474  
737.000000	 98.199448  
736.000000	 98.263128  
735.000000	 98.307063  
734.000000	 98.339703  
733.000000	 98.377723  
732.000000	 98.428386  
731.000000	 98.481483  
730.000000	 98.520332  
729.000000	 98.538824  
728.000000	 98.546105  
727.000000	 98.558268  
726.000000	 98.588723  
725.000000	 98.642102  
724.000000	 98.710256  
723.000000	 98.774184  
722.000000	 98.815736  
721.000000	 98.831681  
720.000000	 98.834885  
719.000000	 98.837279  
718.000000	 98.835555  
717.000000	 98.820378  
716.000000	 98.792464  
715.000000	 98.759070  
714.000000	 98.716478  
713.000000	 98.650121  
712.000000	 98.561558  
711.000000	 98.484608  
710.000000	 98.457889  
709.000000	 98.482143  
708.000000	 98.517324  
707.000000	 98.523065  
706.000000	 98.492654  
705.000000	 98.446866  
704.000000	 98.408249  
703.000000	 98.389088  
702.000000	 98.393111  
701.000000	 98.415977  
700.000000	 98.446867  
699.000000	 98.477436  
698.000000	 98.507223  
697.000000	 98.535925  
696.000000	 98.556839  
695.000000	 98.566206  
694.000000	 98.574493  
693.000000	 98.597007  
692.000000	 98.632582  
691.000000	 98.660964  
690.000000	 98.666014  
689.000000	 98.657183  
688.000000	 98.660629  
687.000000	 98.686181  
686.000000	 98.709048  
685.000000	 98.696220  
684.000000	 98.653512  
683.000000	 98.630386  
682.000000	 98.664001  
681.000000	 98.728482  
680.000000	 98.763157  
679.000000	 98.751871  
678.000000	 98.743106  
677.000000	 98.780910  
676.000000	 98.843673  
675.000000	 98.882120  
674.000000	 98.882548  
673.000000	 98.867745  
672.000000	 98.859526  
671.000000	 98.868876  
670.000000	 98.906123  
669.000000	 98.970747  
668.000000	 99.017490  
667.000000	 98.987352  
666.000000	 98.901286  
665.000000	 98.816771  
664.000000	 98.748531  
663.000000	 98.663536  
662.000000	 98.527690  
661.000000	 98.331671  
660.000000	 98.067235  
659.000000	 97.715309  
658.000000	 97.268970  
657.000000	 96.735500  
656.000000	 96.111052  
655.000000	 95.391565  
654.000000	 94.596498  
653.000000	 93.766832  
652.000000	 92.956372  
651.000000	 92.220631  
650.000000	 91.581406  

