PE IR                   SPECTRUM    ASCII       PEDS        1.60        
  -1
~SP.SP
18/03/23
18:15:21.00
18/03/23
18:15:21.00
pili

650.000000
4









SPECTRUM 100,CPU32 MAIN 00.02.8200 12-DECEMBER-2006 10:00:00
MIR TGS
MIR
OPTKBR
78890
0.200000

4.000000
STRONG
RATIO
SPECTRUM
MAGNITUDE
UNIVERSAL ATR
DOUBLE

COMBINED


0


#HDR
-1
-1
#GR
CM-1
%T
0.00002384185791015625
0.0
4000.000000
-1.000000
3351
8
100.954882
41.150691
#DATA
4000.000000	97.990523  
3999.000000	97.990959  
3998.000000	97.997919  
3997.000000	98.010486  
3996.000000	98.024322  
3995.000000	98.035813  
3994.000000	98.044569  
3993.000000	98.052530  
3992.000000	98.060418  
3991.000000	98.066214  
3990.000000	98.066929  
3989.000000	98.060748  
3988.000000	98.047445  
3987.000000	98.028249  
3986.000000	98.006525  
3985.000000	97.987844  
3984.000000	97.977414  
3983.000000	97.976372  
3982.000000	97.980785  
3981.000000	97.984842  
3980.000000	97.985667  
3979.000000	97.984947  
3978.000000	97.986131  
3977.000000	97.990961  
3976.000000	97.998992  
3975.000000	98.009195  
3974.000000	98.020092  
3973.000000	98.028455  
3972.000000	98.030269  
3971.000000	98.024670  
3970.000000	98.016359  
3969.000000	98.012426  
3968.000000	98.016108  
3967.000000	98.024807  
3966.000000	98.033999  
3965.000000	98.041493  
3964.000000	98.047087  
3963.000000	98.049220  
3962.000000	98.044156  
3961.000000	98.030022  
3960.000000	98.011156  
3959.000000	97.996426  
3958.000000	97.992293  
3957.000000	97.997934  
3956.000000	98.007170  
3955.000000	98.015196  
3954.000000	98.022171  
3953.000000	98.030372  
3952.000000	98.039403  
3951.000000	98.045298  
3950.000000	98.044734  
3949.000000	98.038533  
3948.000000	98.030820  
3947.000000	98.025521  
3946.000000	98.024257  
3945.000000	98.026659  
3944.000000	98.031782  
3943.000000	98.039651  
3942.000000	98.050399  
3941.000000	98.061900  
3940.000000	98.070174  
3939.000000	98.072604  
3938.000000	98.069923  
3937.000000	98.065431  
3936.000000	98.061906  
3935.000000	98.059435  
3934.000000	98.055223  
3933.000000	98.046349  
3932.000000	98.033883  
3931.000000	98.023954  
3930.000000	98.022736  
3929.000000	98.029481  
3928.000000	98.036213  
3927.000000	98.035256  
3926.000000	98.026182  
3925.000000	98.016490  
3924.000000	98.014508  
3923.000000	98.021659  
3922.000000	98.033414  
3921.000000	98.044832  
3920.000000	98.053455  
3919.000000	98.058262  
3918.000000	98.058366  
3917.000000	98.053999  
3916.000000	98.047415  
3915.000000	98.041706  
3914.000000	98.038416  
3913.000000	98.036664  
3912.000000	98.034675  
3911.000000	98.031366  
3910.000000	98.026990  
3909.000000	98.022393  
3908.000000	98.017250  
3907.000000	98.011148  
3906.000000	98.005740  
3905.000000	98.006253  
3904.000000	98.018422  
3903.000000	98.040375  
3902.000000	98.061131  
3901.000000	98.070503  
3900.000000	98.067422  
3899.000000	98.059348  
3898.000000	98.054051  
3897.000000	98.054215  
3896.000000	98.059606  
3895.000000	98.068576  
3894.000000	98.076678  
3893.000000	98.078599  
3892.000000	98.074296  
3891.000000	98.071068  
3890.000000	98.073330  
3889.000000	98.078344  
3888.000000	98.081100  
3887.000000	98.078626  
3886.000000	98.073507  
3885.000000	98.073467  
3884.000000	98.081932  
3883.000000	98.093868  
3882.000000	98.100992  
3881.000000	98.098340  
3880.000000	98.088725  
3879.000000	98.080471  
3878.000000	98.079443  
3877.000000	98.087384  
3876.000000	98.101336  
3875.000000	98.114198  
3874.000000	98.120053  
3873.000000	98.118296  
3872.000000	98.111573  
3871.000000	98.104340  
3870.000000	98.102033  
3869.000000	98.105220  
3868.000000	98.108745  
3867.000000	98.110332  
3866.000000	98.110581  
3865.000000	98.107530  
3864.000000	98.099472  
3863.000000	98.090459  
3862.000000	98.089423  
3861.000000	98.100460  
3860.000000	98.115497  
3859.000000	98.120470  
3858.000000	98.109015  
3857.000000	98.088947  
3856.000000	98.074679  
3855.000000	98.073358  
3854.000000	98.086887  
3853.000000	98.115467  
3852.000000	98.141356  
3851.000000	98.143799  
3850.000000	98.128470  
3849.000000	98.112800  
3848.000000	98.108114  
3847.000000	98.114028  
3846.000000	98.122988  
3845.000000	98.128127  
3844.000000	98.126907  
3843.000000	98.119543  
3842.000000	98.108237  
3841.000000	98.095214  
3840.000000	98.082246  
3839.000000	98.073213  
3838.000000	98.072853  
3837.000000	98.081074  
3836.000000	98.091362  
3835.000000	98.097516  
3834.000000	98.099851  
3833.000000	98.102728  
3832.000000	98.109358  
3831.000000	98.118976  
3830.000000	98.127070  
3829.000000	98.130319  
3828.000000	98.130144  
3827.000000	98.129746  
3826.000000	98.129838  
3825.000000	98.127701  
3824.000000	98.120370  
3823.000000	98.107436  
3822.000000	98.094246  
3821.000000	98.091215  
3820.000000	98.098865  
3819.000000	98.104868  
3818.000000	98.104306  
3817.000000	98.104134  
3816.000000	98.111006  
3815.000000	98.122228  
3814.000000	98.129600  
3813.000000	98.130672  
3812.000000	98.130260  
3811.000000	98.131915  
3810.000000	98.134196  
3809.000000	98.133717  
3808.000000	98.130283  
3807.000000	98.128167  
3806.000000	98.130496  
3805.000000	98.134693  
3804.000000	98.137844  
3803.000000	98.137836  
3802.000000	98.133946  
3801.000000	98.130746  
3800.000000	98.130112  
3799.000000	98.129604  
3798.000000	98.130006  
3797.000000	98.131651  
3796.000000	98.131361  
3795.000000	98.127088  
3794.000000	98.122142  
3793.000000	98.122236  
3792.000000	98.129219  
3791.000000	98.138423  
3790.000000	98.143751  
3789.000000	98.144337  
3788.000000	98.144274  
3787.000000	98.147480  
3786.000000	98.153712  
3785.000000	98.159254  
3784.000000	98.160678  
3783.000000	98.157596  
3782.000000	98.152423  
3781.000000	98.148517  
3780.000000	98.148339  
3779.000000	98.151367  
3778.000000	98.152959  
3777.000000	98.147619  
3776.000000	98.134348  
3775.000000	98.117036  
3774.000000	98.101074  
3773.000000	98.090377  
3772.000000	98.085896  
3771.000000	98.086494  
3770.000000	98.091972  
3769.000000	98.102640  
3768.000000	98.115540  
3767.000000	98.126403  
3766.000000	98.131919  
3765.000000	98.130198  
3764.000000	98.122190  
3763.000000	98.112705  
3762.000000	98.108482  
3761.000000	98.113338  
3760.000000	98.125708  
3759.000000	98.139260  
3758.000000	98.146420  
3757.000000	98.144149  
3756.000000	98.137293  
3755.000000	98.135255  
3754.000000	98.143012  
3753.000000	98.154070  
3752.000000	98.155625  
3751.000000	98.146209  
3750.000000	98.138281  
3749.000000	98.140248  
3748.000000	98.153012  
3747.000000	98.176659  
3746.000000	98.204567  
3745.000000	98.222926  
3744.000000	98.224741  
3743.000000	98.212385  
3742.000000	98.192785  
3741.000000	98.178032  
3740.000000	98.176505  
3739.000000	98.186009  
3738.000000	98.193741  
3737.000000	98.186523  
3736.000000	98.164325  
3735.000000	98.143511  
3734.000000	98.140751  
3733.000000	98.155815  
3732.000000	98.173806  
3731.000000	98.179929  
3730.000000	98.172669  
3729.000000	98.164294  
3728.000000	98.165942  
3727.000000	98.175093  
3726.000000	98.178719  
3725.000000	98.167125  
3724.000000	98.143482  
3723.000000	98.120915  
3722.000000	98.112800  
3721.000000	98.121871  
3720.000000	98.140218  
3719.000000	98.157398  
3718.000000	98.166040  
3717.000000	98.165762  
3716.000000	98.162237  
3715.000000	98.162850  
3714.000000	98.169422  
3713.000000	98.175765  
3712.000000	98.176919  
3711.000000	98.176179  
3710.000000	98.178710  
3709.000000	98.184969  
3708.000000	98.193007  
3707.000000	98.201991  
3706.000000	98.212481  
3705.000000	98.222686  
3704.000000	98.227498  
3703.000000	98.221105  
3702.000000	98.204845  
3701.000000	98.187548  
3700.000000	98.177511  
3699.000000	98.178618  
3698.000000	98.190450  
3697.000000	98.208889  
3696.000000	98.226877  
3695.000000	98.238039  
3694.000000	98.239800  
3693.000000	98.235410  
3692.000000	98.231438  
3691.000000	98.232841  
3690.000000	98.239568  
3689.000000	98.247291  
3688.000000	98.249094  
3687.000000	98.241773  
3686.000000	98.233033  
3685.000000	98.232617  
3684.000000	98.242685  
3683.000000	98.256904  
3682.000000	98.267565  
3681.000000	98.271392  
3680.000000	98.269107  
3679.000000	98.262952  
3678.000000	98.253815  
3677.000000	98.239576  
3676.000000	98.224654  
3675.000000	98.222471  
3674.000000	98.233056  
3673.000000	98.245388  
3672.000000	98.256261  
3671.000000	98.264611  
3670.000000	98.270017  
3669.000000	98.275568  
3668.000000	98.280360  
3667.000000	98.282462  
3666.000000	98.284355  
3665.000000	98.288639  
3664.000000	98.294244  
3663.000000	98.297424  
3662.000000	98.295262  
3661.000000	98.288806  
3660.000000	98.281550  
3659.000000	98.275394  
3658.000000	98.269137  
3657.000000	98.262445  
3656.000000	98.259927  
3655.000000	98.265185  
3654.000000	98.276924  
3653.000000	98.291975  
3652.000000	98.304509  
3651.000000	98.305218  
3650.000000	98.293745  
3649.000000	98.285059  
3648.000000	98.289119  
3647.000000	98.299589  
3646.000000	98.308030  
3645.000000	98.313501  
3644.000000	98.319621  
3643.000000	98.328544  
3642.000000	98.337399  
3641.000000	98.341664  
3640.000000	98.339314  
3639.000000	98.332126  
3638.000000	98.323198  
3637.000000	98.314255  
3636.000000	98.305948  
3635.000000	98.299079  
3634.000000	98.295443  
3633.000000	98.296916  
3632.000000	98.304641  
3631.000000	98.317758  
3630.000000	98.332382  
3629.000000	98.348354  
3628.000000	98.368008  
3627.000000	98.382536  
3626.000000	98.383520  
3625.000000	98.374477  
3624.000000	98.362580  
3623.000000	98.351770  
3622.000000	98.342684  
3621.000000	98.334661  
3620.000000	98.330174  
3619.000000	98.336037  
3618.000000	98.354315  
3617.000000	98.376411  
3616.000000	98.390416  
3615.000000	98.388390  
3614.000000	98.371902  
3613.000000	98.353647  
3612.000000	98.349169  
3611.000000	98.364951  
3610.000000	98.393710  
3609.000000	98.419340  
3608.000000	98.430260  
3607.000000	98.429020  
3606.000000	98.427806  
3605.000000	98.436711  
3604.000000	98.456642  
3603.000000	98.479596  
3602.000000	98.495846  
3601.000000	98.500840  
3600.000000	98.497237  
3599.000000	98.491444  
3598.000000	98.489240  
3597.000000	98.495068  
3596.000000	98.510345  
3595.000000	98.530529  
3594.000000	98.547551  
3593.000000	98.555876  
3592.000000	98.556190  
3591.000000	98.554118  
3590.000000	98.553779  
3589.000000	98.553543  
3588.000000	98.550401  
3587.000000	98.546379  
3586.000000	98.545177  
3585.000000	98.548258  
3584.000000	98.556729  
3583.000000	98.571089  
3582.000000	98.587933  
3581.000000	98.601836  
3580.000000	98.610158  
3579.000000	98.614597  
3578.000000	98.617532  
3577.000000	98.619206  
3576.000000	98.618845  
3575.000000	98.616971  
3574.000000	98.614828  
3573.000000	98.612934  
3572.000000	98.610485  
3571.000000	98.608132  
3570.000000	98.609134  
3569.000000	98.616293  
3568.000000	98.627824  
3567.000000	98.639860  
3566.000000	98.650570  
3565.000000	98.661137  
3564.000000	98.674819  
3563.000000	98.692925  
3562.000000	98.710621  
3561.000000	98.720241  
3560.000000	98.718860  
3559.000000	98.712303  
3558.000000	98.710669  
3557.000000	98.721071  
3556.000000	98.743498  
3555.000000	98.772096  
3554.000000	98.799135  
3553.000000	98.820657  
3552.000000	98.838506  
3551.000000	98.856702  
3550.000000	98.875391  
3549.000000	98.888414  
3548.000000	98.886405  
3547.000000	98.866028  
3546.000000	98.837694  
3545.000000	98.820939  
3544.000000	98.827664  
3543.000000	98.851415  
3542.000000	98.874326  
3541.000000	98.884297  
3540.000000	98.884674  
3539.000000	98.888804  
3538.000000	98.905728  
3537.000000	98.932052  
3536.000000	98.956154  
3535.000000	98.968898  
3534.000000	98.970033  
3533.000000	98.965771  
3532.000000	98.962185  
3531.000000	98.960636  
3530.000000	98.958863  
3529.000000	98.955832  
3528.000000	98.955055  
3527.000000	98.962747  
3526.000000	98.982115  
3525.000000	99.009197  
3524.000000	99.034750  
3523.000000	99.051625  
3522.000000	99.060212  
3521.000000	99.065961  
3520.000000	99.071926  
3519.000000	99.076173  
3518.000000	99.077025  
3517.000000	99.078550  
3516.000000	99.087949  
3515.000000	99.107615  
3514.000000	99.132290  
3513.000000	99.153386  
3512.000000	99.164113  
3511.000000	99.161517  
3510.000000	99.148338  
3509.000000	99.133666  
3508.000000	99.127665  
3507.000000	99.132678  
3506.000000	99.140907  
3505.000000	99.142578  
3504.000000	99.135621  
3503.000000	99.126554  
3502.000000	99.122515  
3501.000000	99.125051  
3500.000000	99.131142  
3499.000000	99.136792  
3498.000000	99.139496  
3497.000000	99.139666  
3496.000000	99.139906  
3495.000000	99.140721  
3494.000000	99.137839  
3493.000000	99.126967  
3492.000000	99.111324  
3491.000000	99.101313  
3490.000000	99.105149  
3489.000000	99.120682  
3488.000000	99.137778  
3487.000000	99.147587  
3486.000000	99.148792  
3485.000000	99.146390  
3484.000000	99.146086  
3483.000000	99.149031  
3482.000000	99.151072  
3481.000000	99.148166  
3480.000000	99.142734  
3479.000000	99.142787  
3478.000000	99.153260  
3477.000000	99.169266  
3476.000000	99.179810  
3475.000000	99.178271  
3474.000000	99.168440  
3473.000000	99.160401  
3472.000000	99.161614  
3471.000000	99.171320  
3470.000000	99.182239  
3469.000000	99.187988  
3468.000000	99.189917  
3467.000000	99.196408  
3466.000000	99.213542  
3465.000000	99.236721  
3464.000000	99.253422  
3463.000000	99.255132  
3462.000000	99.246193  
3461.000000	99.240076  
3460.000000	99.247630  
3459.000000	99.268582  
3458.000000	99.292431  
3457.000000	99.306478  
3456.000000	99.304105  
3455.000000	99.288468  
3454.000000	99.270383  
3453.000000	99.261874  
3452.000000	99.269528  
3451.000000	99.290123  
3450.000000	99.311365  
3449.000000	99.319041  
3448.000000	99.307875  
3447.000000	99.287274  
3446.000000	99.274091  
3445.000000	99.277384  
3444.000000	99.290941  
3443.000000	99.300402  
3442.000000	99.296256  
3441.000000	99.280486  
3440.000000	99.262694  
3439.000000	99.252162  
3438.000000	99.252860  
3437.000000	99.262518  
3436.000000	99.274370  
3435.000000	99.280819  
3434.000000	99.277423  
3433.000000	99.264656  
3432.000000	99.247805  
3431.000000	99.235734  
3430.000000	99.237541  
3429.000000	99.255860  
3428.000000	99.281883  
3427.000000	99.300190  
3426.000000	99.301594  
3425.000000	99.290566  
3424.000000	99.278847  
3423.000000	99.273454  
3422.000000	99.272497  
3421.000000	99.270851  
3420.000000	99.266461  
3419.000000	99.261415  
3418.000000	99.259717  
3417.000000	99.264003  
3416.000000	99.271832  
3415.000000	99.275137  
3414.000000	99.266372  
3413.000000	99.247056  
3412.000000	99.228406  
3411.000000	99.221486  
3410.000000	99.226989  
3409.000000	99.235381  
3408.000000	99.236704  
3407.000000	99.229891  
3406.000000	99.222387  
3405.000000	99.221173  
3404.000000	99.225105  
3403.000000	99.227042  
3402.000000	99.222891  
3401.000000	99.216117  
3400.000000	99.212367  
3399.000000	99.211864  
3398.000000	99.209007  
3397.000000	99.198122  
3396.000000	99.178158  
3395.000000	99.153534  
3394.000000	99.132558  
3393.000000	99.123438  
3392.000000	99.128357  
3391.000000	99.141546  
3390.000000	99.154900  
3389.000000	99.164392  
3388.000000	99.169429  
3387.000000	99.169078  
3386.000000	99.163605  
3385.000000	99.158560  
3384.000000	99.161273  
3383.000000	99.171185  
3382.000000	99.177933  
3381.000000	99.171821  
3380.000000	99.154058  
3379.000000	99.134928  
3378.000000	99.123985  
3377.000000	99.123576  
3376.000000	99.129348  
3375.000000	99.134406  
3374.000000	99.134171  
3373.000000	99.129733  
3372.000000	99.126404  
3371.000000	99.128082  
3370.000000	99.133841  
3369.000000	99.140609  
3368.000000	99.147150  
3367.000000	99.153693  
3366.000000	99.159138  
3365.000000	99.160983  
3364.000000	99.157899  
3363.000000	99.151231  
3362.000000	99.144386  
3361.000000	99.141088  
3360.000000	99.142446  
3359.000000	99.144243  
3358.000000	99.138831  
3357.000000	99.122321  
3356.000000	99.099568  
3355.000000	99.079823  
3354.000000	99.067069  
3353.000000	99.056713  
3352.000000	99.042566  
3351.000000	99.025911  
3350.000000	99.016347  
3349.000000	99.023084  
3348.000000	99.044929  
3347.000000	99.068816  
3346.000000	99.079459  
3345.000000	99.072051  
3344.000000	99.056493  
3343.000000	99.048808  
3342.000000	99.057203  
3341.000000	99.074862  
3340.000000	99.085471  
3339.000000	99.076975  
3338.000000	99.051695  
3337.000000	99.023492  
3336.000000	99.004813  
3335.000000	98.996938  
3334.000000	98.992856  
3333.000000	98.986715  
3332.000000	98.977757  
3331.000000	98.967304  
3330.000000	98.957072  
3329.000000	98.951121  
3328.000000	98.954407  
3327.000000	98.966269  
3326.000000	98.978420  
3325.000000	98.982862  
3324.000000	98.979905  
3323.000000	98.974980  
3322.000000	98.969262  
3321.000000	98.958115  
3320.000000	98.939110  
3319.000000	98.917022  
3318.000000	98.897890  
3317.000000	98.880639  
3316.000000	98.858964  
3315.000000	98.832072  
3314.000000	98.809997  
3313.000000	98.804527  
3312.000000	98.815047  
3311.000000	98.826374  
3310.000000	98.822261  
3309.000000	98.799622  
3308.000000	98.768175  
3307.000000	98.738643  
3306.000000	98.714588  
3305.000000	98.694387  
3304.000000	98.676113  
3303.000000	98.658517  
3302.000000	98.640270  
3301.000000	98.620845  
3300.000000	98.601078  
3299.000000	98.581557  
3298.000000	98.561774  
3297.000000	98.541696  
3296.000000	98.522460  
3295.000000	98.503893  
3294.000000	98.483016  
3293.000000	98.457141  
3292.000000	98.427842  
3291.000000	98.400046  
3290.000000	98.377208  
3289.000000	98.358708  
3288.000000	98.341988  
3287.000000	98.325862  
3286.000000	98.310718  
3285.000000	98.295570  
3284.000000	98.276340  
3283.000000	98.249145  
3282.000000	98.216001  
3281.000000	98.185322  
3280.000000	98.164488  
3279.000000	98.152852  
3278.000000	98.144318  
3277.000000	98.135892  
3276.000000	98.130572  
3275.000000	98.131290  
3274.000000	98.134846  
3273.000000	98.133048  
3272.000000	98.118019  
3271.000000	98.086396  
3270.000000	98.041707  
3269.000000	97.994165  
3268.000000	97.955334  
3267.000000	97.930206  
3266.000000	97.914904  
3265.000000	97.902514  
3264.000000	97.889248  
3263.000000	97.874364  
3262.000000	97.857563  
3261.000000	97.839720  
3260.000000	97.824164  
3259.000000	97.813529  
3258.000000	97.804772  
3257.000000	97.789554  
3256.000000	97.760808  
3255.000000	97.718906  
3254.000000	97.671835  
3253.000000	97.629765  
3252.000000	97.598663  
3251.000000	97.577641  
3250.000000	97.561668  
3249.000000	97.545905  
3248.000000	97.526961  
3247.000000	97.501538  
3246.000000	97.466928  
3245.000000	97.424290  
3244.000000	97.380153  
3243.000000	97.343042  
3242.000000	97.317931  
3241.000000	97.302698  
3240.000000	97.288732  
3239.000000	97.266557  
3238.000000	97.233642  
3237.000000	97.196677  
3236.000000	97.164109  
3235.000000	97.137216  
3234.000000	97.111075  
3233.000000	97.082641  
3232.000000	97.052709  
3231.000000	97.019511  
3230.000000	96.977138  
3229.000000	96.924503  
3228.000000	96.871741  
3227.000000	96.832383  
3226.000000	96.810381  
3225.000000	96.798385  
3224.000000	96.787186  
3223.000000	96.772474  
3222.000000	96.752773  
3221.000000	96.725589  
3220.000000	96.688444  
3219.000000	96.642668  
3218.000000	96.594432  
3217.000000	96.551489  
3216.000000	96.518049  
3215.000000	96.492108  
3214.000000	96.468173  
3213.000000	96.442931  
3212.000000	96.417248  
3211.000000	96.392291  
3210.000000	96.365824  
3209.000000	96.334112  
3208.000000	96.296365  
3207.000000	96.255519  
3206.000000	96.214966  
3205.000000	96.175679  
3204.000000	96.135981  
3203.000000	96.093180  
3202.000000	96.045610  
3201.000000	95.993805  
3200.000000	95.939903  
3199.000000	95.886882  
3198.000000	95.839014  
3197.000000	95.800928  
3196.000000	95.772339  
3195.000000	95.743862  
3194.000000	95.702475  
3193.000000	95.643518  
3192.000000	95.574788  
3191.000000	95.506889  
3190.000000	95.442358  
3189.000000	95.376705  
3188.000000	95.306990  
3187.000000	95.234776  
3186.000000	95.161398  
3185.000000	95.084966  
3184.000000	95.003832  
3183.000000	94.921119  
3182.000000	94.843538  
3181.000000	94.775155  
3180.000000	94.712106  
3179.000000	94.643912  
3178.000000	94.561330  
3177.000000	94.463570  
3176.000000	94.357538  
3175.000000	94.251146  
3174.000000	94.149005  
3173.000000	94.053019  
3172.000000	93.963141  
3171.000000	93.876901  
3170.000000	93.791946  
3169.000000	93.710599  
3168.000000	93.638680  
3167.000000	93.577729  
3166.000000	93.521211  
3165.000000	93.460711  
3164.000000	93.393191  
3163.000000	93.319932  
3162.000000	93.241197  
3161.000000	93.155292  
3160.000000	93.061082  
3159.000000	92.958626  
3158.000000	92.849311  
3157.000000	92.738205  
3156.000000	92.633675  
3155.000000	92.540265  
3154.000000	92.452762  
3153.000000	92.360897  
3152.000000	92.259457  
3151.000000	92.150629  
3150.000000	92.037599  
3149.000000	91.920600  
3148.000000	91.800111  
3147.000000	91.679927  
3146.000000	91.564685  
3145.000000	91.455814  
3144.000000	91.350731  
3143.000000	91.244426  
3142.000000	91.131427  
3141.000000	91.008711  
3140.000000	90.878753  
3139.000000	90.748814  
3138.000000	90.625588  
3137.000000	90.510074  
3136.000000	90.397792  
3135.000000	90.283238  
3134.000000	90.163254  
3133.000000	90.036304  
3132.000000	89.900206  
3131.000000	89.752649  
3130.000000	89.594684  
3129.000000	89.432044  
3128.000000	89.270814  
3127.000000	89.111698  
3126.000000	88.949936  
3125.000000	88.780548  
3124.000000	88.601811  
3123.000000	88.414268  
3122.000000	88.219489  
3121.000000	88.020479  
3120.000000	87.819906  
3119.000000	87.615875  
3118.000000	87.401656  
3117.000000	87.171637  
3116.000000	86.926009  
3115.000000	86.668484  
3114.000000	86.402122  
3113.000000	86.129676  
3112.000000	85.855251  
3111.000000	85.581371  
3110.000000	85.304986  
3109.000000	85.020013  
3108.000000	84.725130  
3107.000000	84.427329  
3106.000000	84.136695  
3105.000000	83.857721  
3104.000000	83.585529  
3103.000000	83.310499  
3102.000000	83.027222  
3101.000000	82.739268  
3100.000000	82.454453  
3099.000000	82.176429  
3098.000000	81.903002  
3097.000000	81.632076  
3096.000000	81.365790  
3095.000000	81.107647  
3094.000000	80.858459  
3093.000000	80.617236  
3092.000000	80.384099  
3091.000000	80.159920  
3090.000000	79.943974  
3089.000000	79.733682  
3088.000000	79.526697  
3087.000000	79.323054  
3086.000000	79.126292  
3085.000000	78.942175  
3084.000000	78.774144  
3083.000000	78.619342  
3082.000000	78.470875  
3081.000000	78.324899  
3080.000000	78.184016  
3079.000000	78.053499  
3078.000000	77.936407  
3077.000000	77.832688  
3076.000000	77.740084  
3075.000000	77.654512  
3074.000000	77.572480  
3073.000000	77.495323  
3072.000000	77.429337  
3071.000000	77.379744  
3070.000000	77.345920  
3069.000000	77.323542  
3068.000000	77.309060  
3067.000000	77.300268  
3066.000000	77.294896  
3065.000000	77.291564  
3064.000000	77.291250  
3063.000000	77.295941  
3062.000000	77.307091  
3061.000000	77.327045  
3060.000000	77.359794  
3059.000000	77.407163  
3058.000000	77.464928  
3057.000000	77.525581  
3056.000000	77.585390  
3055.000000	77.646851  
3054.000000	77.714250  
3053.000000	77.788527  
3052.000000	77.866136  
3051.000000	77.940750  
3050.000000	78.006121  
3049.000000	78.060013  
3048.000000	78.107071  
3047.000000	78.156592  
3046.000000	78.215538  
3045.000000	78.282751  
3044.000000	78.349401  
3043.000000	78.404758  
3042.000000	78.442240  
3041.000000	78.461836  
3040.000000	78.468135  
3039.000000	78.466411  
3038.000000	78.460092  
3037.000000	78.450729  
3036.000000	78.438690  
3035.000000	78.422783  
3034.000000	78.400053  
3033.000000	78.367782  
3032.000000	78.326730  
3031.000000	78.282397  
3030.000000	78.242854  
3029.000000	78.214744  
3028.000000	78.199849  
3027.000000	78.193766  
3026.000000	78.188105  
3025.000000	78.176002  
3024.000000	78.156988  
3023.000000	78.136542  
3022.000000	78.120559  
3021.000000	78.110539  
3020.000000	78.103666  
3019.000000	78.096202  
3018.000000	78.085979  
3017.000000	78.072943  
3016.000000	78.059226  
3015.000000	78.048764  
3014.000000	78.044962  
3013.000000	78.047641  
3012.000000	78.053184  
3011.000000	78.058356  
3010.000000	78.062697  
3009.000000	78.065562  
3008.000000	78.061555  
3007.000000	78.040576  
3006.000000	77.992481  
3005.000000	77.911197  
3004.000000	77.797099  
3003.000000	77.660996  
3002.000000	77.528773  
3001.000000	77.438512  
3000.000000	77.425034  
2999.000000	77.500137  
2998.000000	77.642529  
2997.000000	77.804463  
2996.000000	77.928331  
2995.000000	77.963320  
2994.000000	77.877160  
2993.000000	77.664418  
2992.000000	77.353127  
2991.000000	77.003582  
2990.000000	76.691581  
2989.000000	76.478046  
2988.000000	76.385125  
2987.000000	76.398953  
2986.000000	76.493658  
2985.000000	76.650269  
2984.000000	76.854459  
2983.000000	77.086201  
2982.000000	77.320633  
2981.000000	77.539150  
2980.000000	77.736126  
2979.000000	77.915141  
2978.000000	78.082258  
2977.000000	78.242260  
2976.000000	78.396821  
2975.000000	78.544376  
2974.000000	78.684613  
2973.000000	78.825293  
2972.000000	78.983095  
2971.000000	79.174662  
2970.000000	79.404377  
2969.000000	79.659205  
2968.000000	79.914992  
2967.000000	80.150061  
2966.000000	80.356275  
2965.000000	80.538933  
2964.000000	80.706579  
2963.000000	80.861239  
2962.000000	80.997905  
2961.000000	81.110837  
2960.000000	81.197384  
2959.000000	81.256308  
2958.000000	81.285277  
2957.000000	81.281498  
2956.000000	81.243941  
2955.000000	81.174375  
2954.000000	81.076760  
2953.000000	80.955576  
2952.000000	80.814386  
2951.000000	80.656843  
2950.000000	80.490091  
2949.000000	80.325356  
2948.000000	80.171760  
2947.000000	80.028607  
2946.000000	79.886191  
2945.000000	79.736695  
2944.000000	79.584137  
2943.000000	79.442451  
2942.000000	79.323590  
2941.000000	79.228517  
2940.000000	79.150392  
2939.000000	79.085186  
2938.000000	79.036440  
2937.000000	79.008462  
2936.000000	78.998089  
2935.000000	78.997291  
2934.000000	79.003535  
2933.000000	79.022843  
2932.000000	79.061231  
2931.000000	79.116810  
2930.000000	79.182753  
2929.000000	79.254728  
2928.000000	79.332299  
2927.000000	79.415399  
2926.000000	79.503295  
2925.000000	79.595925  
2924.000000	79.692958  
2923.000000	79.792272  
2922.000000	79.892244  
2921.000000	79.994944  
2920.000000	80.104244  
2919.000000	80.220990  
2918.000000	80.341905  
2917.000000	80.462312  
2916.000000	80.577756  
2915.000000	80.684571  
2914.000000	80.782529  
2913.000000	80.876746  
2912.000000	80.973548  
2911.000000	81.073538  
2910.000000	81.170931  
2909.000000	81.259990  
2908.000000	81.340356  
2907.000000	81.415895  
2906.000000	81.490857  
2905.000000	81.567309  
2904.000000	81.643856  
2903.000000	81.715651  
2902.000000	81.777377  
2901.000000	81.826527  
2900.000000	81.864293  
2899.000000	81.892486  
2898.000000	81.913250  
2897.000000	81.930672  
2896.000000	81.949066  
2895.000000	81.968286  
2894.000000	81.983564  
2893.000000	81.991837  
2892.000000	81.995854  
2891.000000	82.000075  
2890.000000	82.004707  
2889.000000	82.006779  
2888.000000	82.005996  
2887.000000	82.006386  
2886.000000	82.011817  
2885.000000	82.022492  
2884.000000	82.037164  
2883.000000	82.057001  
2882.000000	82.084989  
2881.000000	82.121469  
2880.000000	82.162070  
2879.000000	82.201261  
2878.000000	82.237352  
2877.000000	82.272859  
2876.000000	82.310093  
2875.000000	82.347789  
2874.000000	82.382519  
2873.000000	82.412354  
2872.000000	82.438171  
2871.000000	82.461847  
2870.000000	82.483715  
2869.000000	82.501567  
2868.000000	82.512468  
2867.000000	82.516650  
2866.000000	82.519407  
2865.000000	82.526923  
2864.000000	82.539228  
2863.000000	82.549114  
2862.000000	82.549454  
2861.000000	82.539947  
2860.000000	82.525605  
2859.000000	82.511054  
2858.000000	82.498539  
2857.000000	82.489224  
2856.000000	82.482829  
2855.000000	82.476802  
2854.000000	82.468994  
2853.000000	82.461058  
2852.000000	82.456558  
2851.000000	82.455741  
2850.000000	82.454809  
2849.000000	82.450827  
2848.000000	82.445050  
2847.000000	82.440476  
2846.000000	82.437747  
2845.000000	82.434448  
2844.000000	82.427551  
2843.000000	82.416104  
2842.000000	82.402093  
2841.000000	82.388405  
2840.000000	82.375008  
2839.000000	82.357653  
2838.000000	82.331659  
2837.000000	82.296537  
2836.000000	82.255201  
2835.000000	82.208855  
2834.000000	82.154701  
2833.000000	82.089304  
2832.000000	82.012879  
2831.000000	81.929385  
2830.000000	81.842964  
2829.000000	81.754553  
2828.000000	81.661601  
2827.000000	81.561348  
2826.000000	81.454767  
2825.000000	81.346631  
2824.000000	81.241072  
2823.000000	81.138107  
2822.000000	81.035827  
2821.000000	80.935072  
2820.000000	80.840126  
2819.000000	80.754704  
2818.000000	80.678467  
2817.000000	80.607631  
2816.000000	80.538532  
2815.000000	80.471074  
2814.000000	80.409370  
2813.000000	80.358724  
2812.000000	80.321803  
2811.000000	80.298583  
2810.000000	80.289265  
2809.000000	80.294508  
2808.000000	80.311911  
2807.000000	80.335527  
2806.000000	80.361626  
2805.000000	80.393051  
2804.000000	80.435067  
2803.000000	80.488036  
2802.000000	80.546532  
2801.000000	80.604148  
2800.000000	80.655917  
2799.000000	80.697060  
2798.000000	80.723448  
2797.000000	80.734395  
2796.000000	80.732826  
2795.000000	80.721972  
2794.000000	80.703449  
2793.000000	80.678263  
2792.000000	80.647409  
2791.000000	80.611444  
2790.000000	80.571714  
2789.000000	80.532095  
2788.000000	80.496817  
2787.000000	80.465731  
2786.000000	80.434164  
2785.000000	80.399030  
2784.000000	80.363889  
2783.000000	80.336656  
2782.000000	80.322964  
2781.000000	80.322240  
2780.000000	80.329410  
2779.000000	80.339650  
2778.000000	80.351787  
2777.000000	80.367550  
2776.000000	80.388166  
2775.000000	80.412780  
2774.000000	80.440477  
2773.000000	80.472011  
2772.000000	80.507918  
2771.000000	80.546013  
2770.000000	80.582858  
2769.000000	80.617314  
2768.000000	80.650844  
2767.000000	80.684476  
2766.000000	80.717177  
2765.000000	80.747084  
2764.000000	80.772530  
2763.000000	80.791697  
2762.000000	80.802969  
2761.000000	80.806214  
2760.000000	80.802659  
2759.000000	80.793300  
2758.000000	80.778487  
2757.000000	80.759091  
2756.000000	80.736647  
2755.000000	80.711737  
2754.000000	80.683178  
2753.000000	80.649602  
2752.000000	80.611757  
2751.000000	80.573080  
2750.000000	80.537766  
2749.000000	80.507582  
2748.000000	80.480178  
2747.000000	80.450948  
2746.000000	80.416622  
2745.000000	80.376379  
2744.000000	80.330050  
2743.000000	80.277306  
2742.000000	80.219149  
2741.000000	80.157908  
2740.000000	80.094331  
2739.000000	80.026416  
2738.000000	79.952649  
2737.000000	79.874942  
2736.000000	79.796962  
2735.000000	79.721313  
2734.000000	79.650033  
2733.000000	79.586176  
2732.000000	79.532792  
2731.000000	79.491739  
2730.000000	79.465351  
2729.000000	79.457470  
2728.000000	79.470360  
2727.000000	79.501937  
2726.000000	79.548608  
2725.000000	79.609646  
2724.000000	79.686293  
2723.000000	79.777852  
2722.000000	79.881939  
2721.000000	79.997960  
2720.000000	80.126898  
2719.000000	80.267248  
2718.000000	80.413995  
2717.000000	80.562620  
2716.000000	80.712558  
2715.000000	80.866497  
2714.000000	81.027872  
2713.000000	81.198783  
2712.000000	81.377979  
2711.000000	81.560153  
2710.000000	81.739042  
2709.000000	81.912249  
2708.000000	82.082546  
2707.000000	82.254999  
2706.000000	82.434088  
2705.000000	82.622478  
2704.000000	82.819179  
2703.000000	83.017679  
2702.000000	83.208151  
2701.000000	83.384099  
2700.000000	83.547209  
2699.000000	83.705395  
2698.000000	83.866115  
2697.000000	84.031092  
2696.000000	84.196122  
2695.000000	84.355576  
2694.000000	84.507675  
2693.000000	84.655958  
2692.000000	84.806024  
2691.000000	84.961578  
2690.000000	85.123355  
2689.000000	85.289782  
2688.000000	85.457307  
2687.000000	85.621649  
2686.000000	85.780868  
2685.000000	85.936560  
2684.000000	86.090531  
2683.000000	86.241451  
2682.000000	86.386905  
2681.000000	86.527586  
2680.000000	86.666367  
2679.000000	86.803078  
2678.000000	86.932797  
2677.000000	87.049894  
2676.000000	87.151818  
2675.000000	87.238299  
2674.000000	87.308693  
2673.000000	87.360961  
2672.000000	87.392234  
2671.000000	87.400423  
2670.000000	87.386812  
2669.000000	87.357124  
2668.000000	87.318107  
2667.000000	87.272310  
2666.000000	87.217063  
2665.000000	87.148560  
2664.000000	87.065963  
2663.000000	86.972335  
2662.000000	86.873681  
2661.000000	86.777143  
2660.000000	86.688183  
2659.000000	86.608611  
2658.000000	86.537948  
2657.000000	86.476395  
2656.000000	86.425526  
2655.000000	86.386745  
2654.000000	86.360354  
2653.000000	86.345688  
2652.000000	86.341127  
2651.000000	86.344394  
2650.000000	86.353064  
2649.000000	86.363115  
2648.000000	86.366932  
2647.000000	86.356516  
2646.000000	86.331124  
2645.000000	86.298249  
2644.000000	86.263130  
2643.000000	86.219853  
2642.000000	86.156989  
2641.000000	86.069789  
2640.000000	85.961598  
2639.000000	85.835138  
2638.000000	85.688827  
2637.000000	85.521659  
2636.000000	85.335426  
2635.000000	85.131063  
2634.000000	84.908809  
2633.000000	84.674322  
2632.000000	84.439719  
2631.000000	84.215217  
2630.000000	84.002141  
2629.000000	83.795422  
2628.000000	83.590185  
2627.000000	83.385148  
2626.000000	83.182883  
2625.000000	82.988007  
2624.000000	82.802730  
2623.000000	82.624084  
2622.000000	82.448402  
2621.000000	82.277811  
2620.000000	82.118167  
2619.000000	81.970881  
2618.000000	81.831563  
2617.000000	81.697122  
2616.000000	81.568963  
2615.000000	81.447644  
2614.000000	81.329135  
2613.000000	81.208421  
2612.000000	81.082983  
2611.000000	80.951376  
2610.000000	80.813313  
2609.000000	80.673927  
2608.000000	80.543606  
2607.000000	80.429796  
2606.000000	80.331472  
2605.000000	80.244601  
2604.000000	80.170022  
2603.000000	80.111860  
2602.000000	80.069563  
2601.000000	80.035725  
2600.000000	80.002849  
2599.000000	79.970629  
2598.000000	79.946152  
2597.000000	79.938119  
2596.000000	79.951226  
2595.000000	79.985110  
2594.000000	80.037253  
2593.000000	80.106053  
2592.000000	80.191883  
2591.000000	80.296950  
2590.000000	80.424449  
2589.000000	80.576233  
2588.000000	80.750880  
2587.000000	80.945585  
2586.000000	81.159650  
2585.000000	81.393006  
2584.000000	81.640674  
2583.000000	81.892741  
2582.000000	82.142129  
2581.000000	82.388682  
2580.000000	82.632467  
2579.000000	82.866982  
2578.000000	83.084298  
2577.000000	83.285021  
2576.000000	83.477679  
2575.000000	83.668463  
2574.000000	83.855870  
2573.000000	84.034654  
2572.000000	84.199913  
2571.000000	84.347188  
2570.000000	84.474284  
2569.000000	84.585589  
2568.000000	84.691553  
2567.000000	84.802129  
2566.000000	84.922047  
2565.000000	85.050937  
2564.000000	85.183544  
2563.000000	85.310032  
2562.000000	85.421836  
2561.000000	85.520159  
2560.000000	85.616163  
2559.000000	85.721393  
2558.000000	85.839948  
2557.000000	85.969218  
2556.000000	86.103816  
2555.000000	86.238111  
2554.000000	86.369449  
2553.000000	86.500615  
2552.000000	86.635081  
2551.000000	86.768002  
2550.000000	86.886268  
2549.000000	86.980960  
2548.000000	87.057177  
2547.000000	87.128152  
2546.000000	87.200986  
2545.000000	87.270819  
2544.000000	87.328254  
2543.000000	87.370268  
2542.000000	87.403104  
2541.000000	87.434678  
2540.000000	87.464985  
2539.000000	87.486221  
2538.000000	87.493415  
2537.000000	87.491724  
2536.000000	87.489813  
2535.000000	87.488682  
2534.000000	87.482283  
2533.000000	87.468330  
2532.000000	87.453074  
2531.000000	87.444530  
2530.000000	87.445008  
2529.000000	87.451020  
2528.000000	87.456841  
2527.000000	87.457325  
2526.000000	87.450232  
2525.000000	87.436401  
2524.000000	87.415660  
2523.000000	87.383781  
2522.000000	87.336908  
2521.000000	87.278159  
2520.000000	87.216332  
2519.000000	87.158817  
2518.000000	87.108368  
2517.000000	87.063745  
2516.000000	87.018638  
2515.000000	86.963082  
2514.000000	86.893249  
2513.000000	86.819173  
2512.000000	86.755959  
2511.000000	86.707231  
2510.000000	86.663737  
2509.000000	86.618445  
2508.000000	86.576157  
2507.000000	86.547547  
2506.000000	86.541219  
2505.000000	86.563836  
2504.000000	86.620566  
2503.000000	86.710100  
2502.000000	86.822448  
2501.000000	86.945177  
2500.000000	87.070711  
2499.000000	87.197697  
2498.000000	87.329285  
2497.000000	87.471183  
2496.000000	87.627120  
2495.000000	87.793710  
2494.000000	87.961670  
2493.000000	88.122548  
2492.000000	88.272381  
2491.000000	88.410705  
2490.000000	88.540980  
2489.000000	88.671262  
2488.000000	88.808013  
2487.000000	88.947395  
2486.000000	89.076872  
2485.000000	89.186588  
2484.000000	89.275937  
2483.000000	89.350412  
2482.000000	89.417833  
2481.000000	89.486432  
2480.000000	89.558253  
2479.000000	89.623028  
2478.000000	89.666299  
2477.000000	89.685743  
2476.000000	89.691833  
2475.000000	89.690727  
2474.000000	89.677029  
2473.000000	89.648968  
2472.000000	89.621148  
2471.000000	89.613066  
2470.000000	89.630472  
2469.000000	89.666257  
2468.000000	89.715552  
2467.000000	89.780679  
2466.000000	89.862527  
2465.000000	89.955652  
2464.000000	90.053820  
2463.000000	90.154734  
2462.000000	90.257089  
2461.000000	90.357089  
2460.000000	90.451151  
2459.000000	90.540775  
2458.000000	90.632204  
2457.000000	90.729829  
2456.000000	90.829846  
2455.000000	90.922057  
2454.000000	91.000001  
2453.000000	91.068320  
2452.000000	91.137469  
2451.000000	91.212159  
2450.000000	91.288864  
2449.000000	91.363732  
2448.000000	91.436947  
2447.000000	91.507887  
2446.000000	91.572325  
2445.000000	91.628692  
2444.000000	91.683011  
2443.000000	91.742606  
2442.000000	91.806406  
2441.000000	91.864848  
2440.000000	91.908696  
2439.000000	91.936258  
2438.000000	91.953761  
2437.000000	91.970855  
2436.000000	91.994425  
2435.000000	92.024352  
2434.000000	92.055103  
2433.000000	92.081818  
2432.000000	92.104755  
2431.000000	92.128559  
2430.000000	92.158191  
2429.000000	92.194197  
2428.000000	92.230334  
2427.000000	92.257544  
2426.000000	92.272755  
2425.000000	92.282311  
2424.000000	92.294763  
2423.000000	92.312602  
2422.000000	92.333407  
2421.000000	92.355114  
2420.000000	92.376213  
2419.000000	92.395215  
2418.000000	92.415719  
2417.000000	92.447687  
2416.000000	92.495943  
2415.000000	92.550456  
2414.000000	92.596827  
2413.000000	92.634677  
2412.000000	92.676540  
2411.000000	92.729897  
2410.000000	92.790637  
2409.000000	92.854539  
2408.000000	92.923157  
2407.000000	92.994326  
2406.000000	93.057594  
2405.000000	93.106066  
2404.000000	93.145746  
2403.000000	93.186685  
2402.000000	93.229953  
2401.000000	93.268675  
2400.000000	93.297450  
2399.000000	93.315487  
2398.000000	93.323733  
2397.000000	93.323876  
2396.000000	93.318942  
2395.000000	93.312315  
2394.000000	93.307203  
2393.000000	93.306998  
2392.000000	93.313334  
2391.000000	93.324227  
2390.000000	93.338454  
2389.000000	93.361186  
2388.000000	93.399521  
2387.000000	93.452017  
2386.000000	93.508590  
2385.000000	93.562022  
2384.000000	93.613967  
2383.000000	93.667901  
2382.000000	93.722280  
2381.000000	93.773686  
2380.000000	93.820730  
2379.000000	93.860681  
2378.000000	93.888697  
2377.000000	93.905482  
2376.000000	93.920468  
2375.000000	93.943079  
2374.000000	93.974961  
2373.000000	94.016666  
2372.000000	94.070029  
2371.000000	94.128233  
2370.000000	94.174157  
2369.000000	94.198210  
2368.000000	94.205470  
2367.000000	94.201936  
2366.000000	94.190704  
2365.000000	94.186875  
2364.000000	94.211047  
2363.000000	94.266724  
2362.000000	94.332857  
2361.000000	94.385852  
2360.000000	94.426975  
2359.000000	94.455671  
2358.000000	94.458168  
2357.000000	94.442970  
2356.000000	94.436491  
2355.000000	94.465937  
2354.000000	94.528358  
2353.000000	94.603842  
2352.000000	94.662502  
2351.000000	94.676144  
2350.000000	94.663979  
2349.000000	94.671053  
2348.000000	94.730495  
2347.000000	94.823201  
2346.000000	94.875704  
2345.000000	94.848562  
2344.000000	94.772073  
2343.000000	94.728145  
2342.000000	94.737942  
2341.000000	94.768433  
2340.000000	94.799824  
2339.000000	94.831626  
2338.000000	94.869577  
2337.000000	94.900468  
2336.000000	94.923225  
2335.000000	94.940208  
2334.000000	94.964078  
2333.000000	94.988569  
2332.000000	95.015298  
2331.000000	95.027951  
2330.000000	95.035462  
2329.000000	95.025925  
2328.000000	94.999090  
2327.000000	94.947680  
2326.000000	94.878581  
2325.000000	94.821669  
2324.000000	94.803663  
2323.000000	94.834610  
2322.000000	94.884840  
2321.000000	94.918319  
2320.000000	94.928384  
2319.000000	94.923539  
2318.000000	94.921693  
2317.000000	94.922767  
2316.000000	94.939578  
2315.000000	94.968988  
2314.000000	95.009810  
2313.000000	95.038385  
2312.000000	95.044686  
2311.000000	95.016834  
2310.000000	94.963685  
2309.000000	94.895202  
2308.000000	94.832568  
2307.000000	94.782074  
2306.000000	94.741997  
2305.000000	94.699616  
2304.000000	94.651893  
2303.000000	94.596782  
2302.000000	94.539494  
2301.000000	94.481585  
2300.000000	94.431765  
2299.000000	94.391956  
2298.000000	94.361977  
2297.000000	94.333247  
2296.000000	94.302201  
2295.000000	94.269559  
2294.000000	94.244527  
2293.000000	94.235996  
2292.000000	94.243828  
2291.000000	94.256901  
2290.000000	94.265653  
2289.000000	94.276100  
2288.000000	94.302975  
2287.000000	94.354569  
2286.000000	94.426706  
2285.000000	94.512699  
2284.000000	94.605217  
2283.000000	94.693266  
2282.000000	94.766420  
2281.000000	94.827804  
2280.000000	94.890249  
2279.000000	94.957649  
2278.000000	95.020933  
2277.000000	95.075051  
2276.000000	95.127114  
2275.000000	95.179821  
2274.000000	95.223491  
2273.000000	95.250181  
2272.000000	95.265373  
2271.000000	95.276706  
2270.000000	95.285540  
2269.000000	95.297269  
2268.000000	95.324946  
2267.000000	95.369819  
2266.000000	95.410669  
2265.000000	95.424885  
2264.000000	95.411962  
2263.000000	95.384924  
2262.000000	95.348841  
2261.000000	95.301504  
2260.000000	95.245882  
2259.000000	95.192347  
2258.000000	95.151064  
2257.000000	95.128892  
2256.000000	95.124445  
2255.000000	95.119970  
2254.000000	95.089793  
2253.000000	95.024500  
2252.000000	94.941256  
2251.000000	94.864296  
2250.000000	94.807806  
2249.000000	94.779411  
2248.000000	94.786695  
2247.000000	94.829172  
2246.000000	94.896202  
2245.000000	94.976943  
2244.000000	95.062972  
2243.000000	95.140190  
2242.000000	95.196627  
2241.000000	95.244982  
2240.000000	95.316896  
2239.000000	95.422439  
2238.000000	95.531667  
2237.000000	95.608689  
2236.000000	95.648750  
2235.000000	95.670185  
2234.000000	95.687670  
2233.000000	95.708405  
2232.000000	95.737258  
2231.000000	95.769157  
2230.000000	95.791177  
2229.000000	95.806753  
2228.000000	95.841162  
2227.000000	95.906085  
2226.000000	95.975491  
2225.000000	96.015537  
2224.000000	96.025239  
2223.000000	96.029211  
2222.000000	96.043257  
2221.000000	96.064741  
2220.000000	96.084536  
2219.000000	96.091824  
2218.000000	96.079548  
2217.000000	96.060146  
2216.000000	96.061624  
2215.000000	96.093428  
2214.000000	96.132889  
2213.000000	96.160585  
2212.000000	96.188942  
2211.000000	96.235516  
2210.000000	96.287932  
2209.000000	96.320892  
2208.000000	96.333133  
2207.000000	96.341591  
2206.000000	96.350861  
2205.000000	96.354365  
2204.000000	96.357201  
2203.000000	96.373952  
2202.000000	96.408265  
2201.000000	96.450264  
2200.000000	96.485358  
2199.000000	96.492932  
2198.000000	96.453109  
2197.000000	96.374468  
2196.000000	96.299289  
2195.000000	96.259844  
2194.000000	96.243987  
2193.000000	96.223068  
2192.000000	96.196561  
2191.000000	96.185011  
2190.000000	96.193580  
2189.000000	96.208175  
2188.000000	96.216285  
2187.000000	96.208651  
2186.000000	96.174458  
2185.000000	96.122040  
2184.000000	96.091658  
2183.000000	96.116479  
2182.000000	96.176862  
2181.000000	96.219228  
2180.000000	96.214188  
2179.000000	96.171391  
2178.000000	96.107399  
2177.000000	96.028705  
2176.000000	95.942534  
2175.000000	95.860395  
2174.000000	95.791156  
2173.000000	95.743725  
2172.000000	95.727834  
2171.000000	95.737648  
2170.000000	95.744554  
2169.000000	95.722003  
2168.000000	95.669935  
2167.000000	95.601026  
2166.000000	95.515625  
2165.000000	95.410085  
2164.000000	95.302468  
2163.000000	95.234422  
2162.000000	95.254316  
2161.000000	95.399309  
2160.000000	95.662416  
2159.000000	95.959494  
2158.000000	96.165030  
2157.000000	96.210778  
2156.000000	96.125054  
2155.000000	95.973999  
2154.000000	95.808198  
2153.000000	95.665892  
2152.000000	95.577834  
2151.000000	95.546425  
2150.000000	95.545481  
2149.000000	95.556910  
2148.000000	95.587054  
2147.000000	95.634881  
2146.000000	95.671700  
2145.000000	95.672215  
2144.000000	95.641833  
2143.000000	95.591921  
2142.000000	95.511221  
2141.000000	95.386521  
2140.000000	95.234436  
2139.000000	95.088576  
2138.000000	94.966443  
2137.000000	94.866220  
2136.000000	94.782863  
2135.000000	94.708426  
2134.000000	94.624870  
2133.000000	94.513339  
2132.000000	94.367004  
2131.000000	94.187137  
2130.000000	93.976124  
2129.000000	93.742553  
2128.000000	93.503152  
2127.000000	93.270617  
2126.000000	93.045319  
2125.000000	92.821692  
2124.000000	92.593810  
2123.000000	92.354048  
2122.000000	92.100649  
2121.000000	91.851790  
2120.000000	91.637605  
2119.000000	91.469192  
2118.000000	91.325551  
2117.000000	91.178486  
2116.000000	91.022432  
2115.000000	90.873777  
2114.000000	90.750177  
2113.000000	90.659274  
2112.000000	90.601530  
2111.000000	90.575516  
2110.000000	90.581480  
2109.000000	90.622066  
2108.000000	90.696260  
2107.000000	90.792753  
2106.000000	90.895584  
2105.000000	90.997238  
2104.000000	91.099971  
2103.000000	91.206154  
2102.000000	91.319261  
2101.000000	91.454703  
2100.000000	91.632686  
2099.000000	91.851246  
2098.000000	92.077466  
2097.000000	92.275578  
2096.000000	92.437108  
2095.000000	92.576194  
2094.000000	92.705808  
2093.000000	92.828802  
2092.000000	92.942239  
2091.000000	93.038775  
2090.000000	93.110192  
2089.000000	93.158961  
2088.000000	93.200847  
2087.000000	93.249225  
2086.000000	93.302795  
2085.000000	93.352239  
2084.000000	93.390355  
2083.000000	93.412800  
2082.000000	93.420974  
2081.000000	93.429187  
2080.000000	93.455744  
2079.000000	93.500775  
2078.000000	93.546457  
2077.000000	93.584534  
2076.000000	93.626211  
2075.000000	93.676554  
2074.000000	93.720279  
2073.000000	93.748269  
2072.000000	93.780158  
2071.000000	93.840413  
2070.000000	93.924009  
2069.000000	94.004088  
2068.000000	94.065956  
2067.000000	94.118005  
2066.000000	94.176566  
2065.000000	94.254085  
2064.000000	94.354817  
2063.000000	94.469321  
2062.000000	94.578957  
2061.000000	94.673580  
2060.000000	94.756397  
2059.000000	94.827526  
2058.000000	94.880104  
2057.000000	94.921209  
2056.000000	94.974400  
2055.000000	95.045086  
2054.000000	95.103657  
2053.000000	95.123961  
2052.000000	95.123046  
2051.000000	95.142579  
2050.000000	95.203065  
2049.000000	95.291526  
2048.000000	95.382601  
2047.000000	95.453217  
2046.000000	95.487235  
2045.000000	95.489151  
2044.000000	95.484857  
2043.000000	95.489568  
2042.000000	95.487525  
2041.000000	95.459509  
2040.000000	95.411918  
2039.000000	95.359106  
2038.000000	95.301136  
2037.000000	95.244675  
2036.000000	95.223003  
2035.000000	95.263268  
2034.000000	95.347153  
2033.000000	95.429750  
2032.000000	95.484935  
2031.000000	95.511609  
2030.000000	95.517875  
2029.000000	95.527358  
2028.000000	95.578387  
2027.000000	95.683956  
2026.000000	95.805793  
2025.000000	95.893329  
2024.000000	95.939991  
2023.000000	95.981949  
2022.000000	96.055819  
2021.000000	96.174669  
2020.000000	96.325261  
2019.000000	96.468515  
2018.000000	96.558999  
2017.000000	96.585767  
2016.000000	96.581274  
2015.000000	96.576489  
2014.000000	96.573862  
2013.000000	96.575117  
2012.000000	96.598161  
2011.000000	96.646503  
2010.000000	96.696087  
2009.000000	96.737350  
2008.000000	96.799132  
2007.000000	96.900318  
2006.000000	97.006088  
2005.000000	97.063926  
2004.000000	97.060684  
2003.000000	97.019570  
2002.000000	96.968948  
2001.000000	96.935394  
2000.000000	96.935060  
1999.000000	96.947326  
1998.000000	96.923645  
1997.000000	96.847750  
1996.000000	96.766008  
1995.000000	96.737207  
1994.000000	96.774274  
1993.000000	96.849442  
1992.000000	96.929986  
1991.000000	96.989043  
1990.000000	97.005047  
1989.000000	96.978182  
1988.000000	96.932083  
1987.000000	96.881717  
1986.000000	96.820014  
1985.000000	96.750367  
1984.000000	96.702665  
1983.000000	96.694606  
1982.000000	96.706317  
1981.000000	96.718668  
1980.000000	96.749460  
1979.000000	96.821530  
1978.000000	96.917753  
1977.000000	97.003531  
1976.000000	97.073166  
1975.000000	97.135774  
1974.000000	97.179628  
1973.000000	97.188047  
1972.000000	97.170170  
1971.000000	97.146849  
1970.000000	97.125372  
1969.000000	97.109007  
1968.000000	97.107423  
1967.000000	97.115161  
1966.000000	97.103946  
1965.000000	97.061846  
1964.000000	97.019023  
1963.000000	97.014968  
1962.000000	97.058856  
1961.000000	97.131217  
1960.000000	97.203400  
1959.000000	97.246809  
1958.000000	97.247946  
1957.000000	97.228157  
1956.000000	97.226773  
1955.000000	97.255827  
1954.000000	97.292067  
1953.000000	97.316625  
1952.000000	97.334424  
1951.000000	97.347901  
1950.000000	97.346416  
1949.000000	97.334097  
1948.000000	97.333110  
1947.000000	97.343041  
1946.000000	97.332856  
1945.000000	97.293417  
1944.000000	97.265089  
1943.000000	97.287323  
1942.000000	97.345458  
1941.000000	97.397660  
1940.000000	97.430295  
1939.000000	97.455010  
1938.000000	97.478357  
1937.000000	97.502905  
1936.000000	97.538833  
1935.000000	97.589325  
1934.000000	97.635111  
1933.000000	97.652854  
1932.000000	97.641867  
1931.000000	97.620326  
1930.000000	97.608754  
1929.000000	97.624061  
1928.000000	97.668111  
1927.000000	97.712935  
1926.000000	97.721337  
1925.000000	97.693538  
1924.000000	97.668333  
1923.000000	97.666935  
1922.000000	97.665511  
1921.000000	97.643875  
1920.000000	97.624108  
1919.000000	97.636515  
1918.000000	97.675433  
1917.000000	97.714698  
1916.000000	97.747993  
1915.000000	97.780833  
1914.000000	97.803395  
1913.000000	97.802559  
1912.000000	97.784834  
1911.000000	97.762411  
1910.000000	97.732807  
1909.000000	97.696053  
1908.000000	97.673990  
1907.000000	97.685803  
1906.000000	97.720452  
1905.000000	97.754694  
1904.000000	97.780591  
1903.000000	97.797538  
1902.000000	97.796816  
1901.000000	97.775758  
1900.000000	97.749110  
1899.000000	97.727747  
1898.000000	97.704589  
1897.000000	97.678941  
1896.000000	97.672269  
1895.000000	97.696178  
1894.000000	97.725163  
1893.000000	97.730068  
1892.000000	97.719541  
1891.000000	97.723489  
1890.000000	97.752170  
1889.000000	97.792460  
1888.000000	97.834393  
1887.000000	97.876170  
1886.000000	97.911661  
1885.000000	97.935523  
1884.000000	97.953063  
1883.000000	97.967725  
1882.000000	97.971060  
1881.000000	97.961187  
1880.000000	97.955674  
1879.000000	97.969783  
1878.000000	97.996395  
1877.000000	98.022974  
1876.000000	98.051458  
1875.000000	98.081868  
1874.000000	98.093660  
1873.000000	98.067244  
1872.000000	98.011976  
1871.000000	97.954694  
1870.000000	97.914925  
1869.000000	97.903059  
1868.000000	97.922031  
1867.000000	97.954585  
1866.000000	97.971853  
1865.000000	97.967556  
1864.000000	97.964662  
1863.000000	97.979630  
1862.000000	97.997309  
1861.000000	97.996068  
1860.000000	97.980621  
1859.000000	97.968193  
1858.000000	97.959038  
1857.000000	97.945240  
1856.000000	97.931787  
1855.000000	97.924243  
1854.000000	97.911776  
1853.000000	97.882763  
1852.000000	97.844958  
1851.000000	97.813216  
1850.000000	97.787481  
1849.000000	97.761418  
1848.000000	97.740164  
1847.000000	97.732391  
1846.000000	97.734702  
1845.000000	97.742197  
1844.000000	97.759035  
1843.000000	97.776892  
1842.000000	97.774329  
1841.000000	97.752082  
1840.000000	97.734992  
1839.000000	97.742590  
1838.000000	97.771246  
1837.000000	97.807561  
1836.000000	97.843948  
1835.000000	97.870377  
1834.000000	97.871525  
1833.000000	97.848002  
1832.000000	97.826803  
1831.000000	97.838333  
1830.000000	97.880687  
1829.000000	97.921594  
1828.000000	97.943860  
1827.000000	97.961131  
1826.000000	97.987345  
1825.000000	98.019409  
1824.000000	98.047832  
1823.000000	98.064709  
1822.000000	98.063633  
1821.000000	98.048189  
1820.000000	98.039775  
1819.000000	98.059341  
1818.000000	98.099937  
1817.000000	98.134193  
1816.000000	98.144217  
1815.000000	98.128689  
1814.000000	98.091080  
1813.000000	98.042139  
1812.000000	98.006556  
1811.000000	98.001577  
1810.000000	98.010411  
1809.000000	98.004140  
1808.000000	97.982648  
1807.000000	97.963472  
1806.000000	97.944302  
1805.000000	97.907558  
1804.000000	97.853957  
1803.000000	97.808203  
1802.000000	97.792499  
1801.000000	97.807923  
1800.000000	97.841017  
1799.000000	97.868598  
1798.000000	97.863015  
1797.000000	97.817789  
1796.000000	97.761414  
1795.000000	97.727310  
1794.000000	97.720657  
1793.000000	97.728628  
1792.000000	97.748275  
1791.000000	97.776307  
1790.000000	97.790617  
1789.000000	97.774960  
1788.000000	97.740620  
1787.000000	97.711498  
1786.000000	97.698100  
1785.000000	97.693634  
1784.000000	97.689439  
1783.000000	97.681975  
1782.000000	97.668094  
1781.000000	97.645869  
1780.000000	97.622971  
1779.000000	97.604727  
1778.000000	97.580277  
1777.000000	97.537964  
1776.000000	97.484485  
1775.000000	97.435424  
1774.000000	97.393752  
1773.000000	97.353331  
1772.000000	97.309676  
1771.000000	97.256365  
1770.000000	97.192105  
1769.000000	97.130915  
1768.000000	97.085035  
1767.000000	97.044554  
1766.000000	96.982130  
1765.000000	96.885486  
1764.000000	96.771160  
1763.000000	96.668282  
1762.000000	96.594206  
1761.000000	96.538170  
1760.000000	96.480738  
1759.000000	96.415845  
1758.000000	96.344707  
1757.000000	96.269038  
1756.000000	96.191723  
1755.000000	96.113615  
1754.000000	96.033128  
1753.000000	95.950439  
1752.000000	95.874035  
1751.000000	95.816879  
1750.000000	95.779967  
1749.000000	95.756988  
1748.000000	95.743394  
1747.000000	95.728102  
1746.000000	95.696755  
1745.000000	95.653729  
1744.000000	95.626052  
1743.000000	95.634269  
1742.000000	95.672580  
1741.000000	95.726504  
1740.000000	95.789904  
1739.000000	95.851318  
1738.000000	95.900548  
1737.000000	95.964561  
1736.000000	96.100974  
1735.000000	96.351843  
1734.000000	96.664122  
1733.000000	96.891426  
1732.000000	96.984575  
1731.000000	97.029634  
1730.000000	97.098769  
1729.000000	97.203806  
1728.000000	97.331282  
1727.000000	97.468408  
1726.000000	97.600405  
1725.000000	97.714663  
1724.000000	97.808242  
1723.000000	97.872161  
1722.000000	97.889806  
1721.000000	97.867397  
1720.000000	97.842694  
1719.000000	97.849122  
1718.000000	97.877706  
1717.000000	97.883630  
1716.000000	97.858939  
1715.000000	97.841176  
1714.000000	97.843070  
1713.000000	97.847343  
1712.000000	97.850169  
1711.000000	97.858055  
1710.000000	97.862052  
1709.000000	97.845980  
1708.000000	97.819688  
1707.000000	97.809759  
1706.000000	97.810596  
1705.000000	97.786988  
1704.000000	97.741957  
1703.000000	97.726684  
1702.000000	97.765011  
1701.000000	97.831204  
1700.000000	97.876801  
1699.000000	97.873803  
1698.000000	97.837469  
1697.000000	97.811463  
1696.000000	97.809166  
1695.000000	97.795775  
1694.000000	97.723770  
1693.000000	97.613039  
1692.000000	97.520790  
1691.000000	97.462481  
1690.000000	97.410627  
1689.000000	97.346574  
1688.000000	97.293369  
1687.000000	97.277745  
1686.000000	97.274115  
1685.000000	97.249284  
1684.000000	97.218762  
1683.000000	97.181323  
1682.000000	97.109753  
1681.000000	97.026713  
1680.000000	96.955315  
1679.000000	96.897331  
1678.000000	96.840274  
1677.000000	96.779877  
1676.000000	96.729623  
1675.000000	96.693601  
1674.000000	96.642372  
1673.000000	96.561533  
1672.000000	96.487303  
1671.000000	96.448536  
1670.000000	96.426215  
1669.000000	96.384335  
1668.000000	96.317544  
1667.000000	96.237221  
1666.000000	96.139468  
1665.000000	96.012883  
1664.000000	95.866129  
1663.000000	95.714890  
1662.000000	95.539994  
1661.000000	95.307357  
1660.000000	95.017948  
1659.000000	94.680177  
1658.000000	94.286133  
1657.000000	93.847066  
1656.000000	93.402234  
1655.000000	92.906228  
1654.000000	92.187572  
1653.000000	91.194202  
1652.000000	90.192416  
1651.000000	89.352647  
1650.000000	88.652440  
1649.000000	87.996431  
1648.000000	87.341370  
1647.000000	86.757229  
1646.000000	86.326850  
1645.000000	86.017003  
1644.000000	85.784046  
1643.000000	85.623321  
1642.000000	85.487639  
1641.000000	85.293940  
1640.000000	85.020953  
1639.000000	84.706445  
1638.000000	84.315850  
1637.000000	83.695628  
1636.000000	82.750913  
1635.000000	81.621341  
1634.000000	80.480481  
1633.000000	79.331491  
1632.000000	78.122291  
1631.000000	76.814787  
1630.000000	75.342365  
1629.000000	73.633778  
1628.000000	71.745351  
1627.000000	69.857554  
1626.000000	68.048474  
1625.000000	66.194709  
1624.000000	64.188685  
1623.000000	62.179850  
1622.000000	60.457670  
1621.000000	59.132579  
1620.000000	58.128236  
1619.000000	57.329905  
1618.000000	56.602036  
1617.000000	55.836955  
1616.000000	55.114143  
1615.000000	54.627043  
1614.000000	54.419181  
1613.000000	54.392349  
1612.000000	54.491922  
1611.000000	54.771577  
1610.000000	55.271440  
1609.000000	55.912673  
1608.000000	56.563446  
1607.000000	57.123891  
1606.000000	57.503950  
1605.000000	57.603562  
1604.000000	57.372990  
1603.000000	56.850578  
1602.000000	56.105481  
1601.000000	55.178306  
1600.000000	54.111724  
1599.000000	52.985334  
1598.000000	51.863044  
1597.000000	50.746572  
1596.000000	49.632582  
1595.000000	48.566918  
1594.000000	47.585302  
1593.000000	46.654264  
1592.000000	45.733127  
1591.000000	44.839666  
1590.000000	44.002808  
1589.000000	43.212261  
1588.000000	42.474910  
1587.000000	41.863141  
1586.000000	41.444754  
1585.000000	41.214315  
1584.000000	41.150691  
1583.000000	41.282017  
1582.000000	41.624546  
1581.000000	42.121439  
1580.000000	42.713874  
1579.000000	43.411474  
1578.000000	44.225641  
1577.000000	45.085802  
1576.000000	45.901705  
1575.000000	46.690133  
1574.000000	47.518395  
1573.000000	48.391792  
1572.000000	49.276326  
1571.000000	50.152816  
1570.000000	51.007335  
1569.000000	51.802622  
1568.000000	52.526578  
1567.000000	53.230745  
1566.000000	53.957683  
1565.000000	54.682619  
1564.000000	55.376758  
1563.000000	56.082833  
1562.000000	56.859871  
1561.000000	57.681910  
1560.000000	58.446939  
1559.000000	59.122673  
1558.000000	59.786690  
1557.000000	60.457788  
1556.000000	61.129077  
1555.000000	61.801866  
1554.000000	62.459515  
1553.000000	63.064343  
1552.000000	63.601460  
1551.000000	64.096059  
1550.000000	64.577401  
1549.000000	65.051849  
1548.000000	65.517613  
1547.000000	65.991438  
1546.000000	66.497406  
1545.000000	67.045361  
1544.000000	67.640574  
1543.000000	68.303960  
1542.000000	69.054780  
1541.000000	69.888214  
1540.000000	70.775301  
1539.000000	71.635871  
1538.000000	72.386951  
1537.000000	73.045532  
1536.000000	73.676850  
1535.000000	74.301526  
1534.000000	74.872465  
1533.000000	75.322547  
1532.000000	75.643892  
1531.000000	75.864367  
1530.000000	75.971139  
1529.000000	75.915099  
1528.000000	75.661343  
1527.000000	75.208986  
1526.000000	74.600745  
1525.000000	73.917761  
1524.000000	73.208286  
1523.000000	72.417760  
1522.000000	71.493923  
1521.000000	70.601232  
1520.000000	70.012840  
1519.000000	69.788134  
1518.000000	69.818623  
1517.000000	70.001966  
1516.000000	70.288725  
1515.000000	70.646159  
1514.000000	71.022367  
1513.000000	71.339960  
1512.000000	71.535639  
1511.000000	71.619623  
1510.000000	71.651473  
1509.000000	71.647027  
1508.000000	71.563857  
1507.000000	71.440278  
1506.000000	71.438310  
1505.000000	71.622174  
1504.000000	71.944022  
1503.000000	72.379122  
1502.000000	72.914441  
1501.000000	73.522034  
1500.000000	74.174138  
1499.000000	74.876180  
1498.000000	75.652987  
1497.000000	76.493384  
1496.000000	77.335924  
1495.000000	78.130288  
1494.000000	78.874795  
1493.000000	79.586756  
1492.000000	80.284272  
1491.000000	80.994374  
1490.000000	81.728438  
1489.000000	82.448754  
1488.000000	83.121457  
1487.000000	83.752756  
1486.000000	84.333404  
1485.000000	84.827691  
1484.000000	85.228990  
1483.000000	85.578664  
1482.000000	85.914027  
1481.000000	86.230852  
1480.000000	86.515198  
1479.000000	86.769911  
1478.000000	86.983783  
1477.000000	87.123762  
1476.000000	87.184170  
1475.000000	87.187335  
1474.000000	87.104596  
1473.000000	86.858114  
1472.000000	86.435590  
1471.000000	85.895236  
1470.000000	85.238609  
1469.000000	84.411447  
1468.000000	83.380012  
1467.000000	82.130276  
1466.000000	80.650192  
1465.000000	79.043524  
1464.000000	77.601619  
1463.000000	76.533472  
1462.000000	75.734481  
1461.000000	74.932048  
1460.000000	73.872972  
1459.000000	72.318519  
1458.000000	70.075643  
1457.000000	67.429458  
1456.000000	65.310789  
1455.000000	64.325755  
1454.000000	64.375054  
1453.000000	65.196891  
1452.000000	66.570191  
1451.000000	68.245576  
1450.000000	69.990763  
1449.000000	71.663974  
1448.000000	73.179876  
1447.000000	74.503069  
1446.000000	75.691721  
1445.000000	76.853265  
1444.000000	78.068755  
1443.000000	79.373576  
1442.000000	80.749236  
1441.000000	82.102287  
1440.000000	83.310010  
1439.000000	84.324790  
1438.000000	85.189145  
1437.000000	85.924782  
1436.000000	86.464137  
1435.000000	86.784495  
1434.000000	86.970581  
1433.000000	87.077335  
1432.000000	87.078954  
1431.000000	86.956392  
1430.000000	86.741764  
1429.000000	86.447759  
1428.000000	86.041368  
1427.000000	85.503628  
1426.000000	84.820986  
1425.000000	83.936641  
1424.000000	82.817745  
1423.000000	81.531661  
1422.000000	80.092444  
1421.000000	78.270424  
1420.000000	75.734752  
1419.000000	72.516319  
1418.000000	69.105143  
1417.000000	65.845749  
1416.000000	62.748970  
1415.000000	59.824223  
1414.000000	57.202047  
1413.000000	55.073944  
1412.000000	53.678564  
1411.000000	53.233255  
1410.000000	53.769076  
1409.000000	55.129339  
1408.000000	57.137727  
1407.000000	59.650711  
1406.000000	62.490674  
1405.000000	65.435035  
1404.000000	68.264451  
1403.000000	70.825614  
1402.000000	73.093178  
1401.000000	75.153744  
1400.000000	77.095108  
1399.000000	78.902918  
1398.000000	80.505088  
1397.000000	81.898182  
1396.000000	83.144605  
1395.000000	84.278287  
1394.000000	85.277484  
1393.000000	86.114652  
1392.000000	86.791198  
1391.000000	87.333159  
1390.000000	87.775262  
1389.000000	88.144736  
1388.000000	88.448020  
1387.000000	88.675776  
1386.000000	88.817617  
1385.000000	88.852519  
1384.000000	88.727386  
1383.000000	88.362658  
1382.000000	87.687536  
1381.000000	86.691038  
1380.000000	85.489698  
1379.000000	84.352369  
1378.000000	83.558205  
1377.000000	83.158536  
1376.000000	82.925449  
1375.000000	82.543701  
1374.000000	81.820773  
1373.000000	80.715643  
1372.000000	79.213024  
1371.000000	77.249538  
1370.000000	74.757438  
1369.000000	71.741703  
1368.000000	68.332909  
1367.000000	64.765015  
1366.000000	61.255810  
1365.000000	57.925735  
1364.000000	54.890707  
1363.000000	52.409340  
1362.000000	50.799864  
1361.000000	50.150532  
1360.000000	50.243541  
1359.000000	50.775881  
1358.000000	51.564958  
1357.000000	52.596643  
1356.000000	53.956141  
1355.000000	55.707015  
1354.000000	57.801624  
1353.000000	60.097300  
1352.000000	62.446352  
1351.000000	64.750269  
1350.000000	66.948402  
1349.000000	69.000400  
1348.000000	70.887439  
1347.000000	72.614035  
1346.000000	74.196293  
1345.000000	75.647175  
1344.000000	76.969879  
1343.000000	78.164609  
1342.000000	79.242382  
1341.000000	80.230082  
1340.000000	81.157110  
1339.000000	82.037361  
1338.000000	82.868965  
1337.000000	83.647051  
1336.000000	84.369403  
1335.000000	85.035755  
1334.000000	85.648323  
1333.000000	86.209651  
1332.000000	86.717291  
1331.000000	87.165072  
1330.000000	87.551228  
1329.000000	87.879020  
1328.000000	88.148009  
1327.000000	88.351771  
1326.000000	88.484365  
1325.000000	88.540287  
1324.000000	88.505329  
1323.000000	88.359012  
1322.000000	88.084276  
1321.000000	87.663257  
1320.000000	87.064497  
1319.000000	86.245211  
1318.000000	85.161556  
1317.000000	83.760839  
1316.000000	81.964523  
1315.000000	79.675500  
1314.000000	76.817447  
1313.000000	73.387074  
1312.000000	69.493437  
1311.000000	65.354481  
1310.000000	61.250505  
1309.000000	57.486056  
1308.000000	54.381062  
1307.000000	52.226515  
1306.000000	51.186864  
1305.000000	51.247512  
1304.000000	52.251648  
1303.000000	53.954390  
1302.000000	56.065828  
1301.000000	58.320711  
1300.000000	60.548170  
1299.000000	62.677390  
1298.000000	64.689846  
1297.000000	66.580428  
1296.000000	68.349384  
1295.000000	70.001442  
1294.000000	71.539562  
1293.000000	72.962088  
1292.000000	74.267126  
1291.000000	75.457301  
1290.000000	76.540345  
1289.000000	77.527263  
1288.000000	78.431147  
1287.000000	79.266617  
1286.000000	80.046957  
1285.000000	80.779309  
1284.000000	81.464896  
1283.000000	82.106329  
1282.000000	82.711255  
1281.000000	83.285376  
1280.000000	83.826301  
1279.000000	84.330352  
1278.000000	84.802760  
1277.000000	85.254267  
1276.000000	85.690109  
1275.000000	86.108519  
1274.000000	86.508207  
1273.000000	86.890836  
1272.000000	87.258112  
1271.000000	87.611980  
1270.000000	87.954308  
1269.000000	88.280580  
1268.000000	88.579165  
1267.000000	88.844796  
1266.000000	89.087708  
1265.000000	89.320519  
1264.000000	89.542633  
1263.000000	89.747393  
1262.000000	89.937014  
1261.000000	90.118388  
1260.000000	90.290074  
1259.000000	90.445922  
1258.000000	90.587037  
1257.000000	90.717844  
1256.000000	90.835927  
1255.000000	90.936673  
1254.000000	91.020911  
1253.000000	91.085454  
1252.000000	91.113263  
1251.000000	91.086339  
1250.000000	91.001333  
1249.000000	90.856977  
1248.000000	90.631258  
1247.000000	90.283910  
1246.000000	89.772032  
1245.000000	89.044199  
1244.000000	88.025064  
1243.000000	86.627576  
1242.000000	84.790846  
1241.000000	82.522786  
1240.000000	79.951519  
1239.000000	77.364913  
1238.000000	75.165629  
1237.000000	73.729663  
1236.000000	73.263312  
1235.000000	73.739236  
1234.000000	74.931788  
1233.000000	76.533710  
1232.000000	78.278850  
1231.000000	79.997492  
1230.000000	81.605778  
1229.000000	83.071012  
1228.000000	84.382314  
1227.000000	85.540685  
1226.000000	86.562802  
1225.000000	87.476149  
1224.000000	88.298012  
1223.000000	89.019060  
1222.000000	89.609895  
1221.000000	90.046563  
1220.000000	90.341463  
1219.000000	90.560875  
1218.000000	90.802075  
1217.000000	91.132641  
1216.000000	91.548123  
1215.000000	91.992111  
1214.000000	92.409113  
1213.000000	92.771074  
1212.000000	93.069344  
1211.000000	93.307611  
1210.000000	93.502911  
1209.000000	93.674876  
1208.000000	93.832437  
1207.000000	93.981169  
1206.000000	94.135233  
1205.000000	94.305770  
1204.000000	94.485036  
1203.000000	94.659871  
1202.000000	94.834593  
1201.000000	95.021609  
1200.000000	95.215559  
1199.000000	95.398855  
1198.000000	95.570444  
1197.000000	95.747143  
1196.000000	95.936355  
1195.000000	96.127235  
1194.000000	96.309318  
1193.000000	96.481744  
1192.000000	96.643775  
1191.000000	96.794657  
1190.000000	96.943417  
1189.000000	97.100243  
1188.000000	97.256643  
1187.000000	97.391555  
1186.000000	97.499432  
1185.000000	97.596512  
1184.000000	97.698007  
1183.000000	97.803884  
1182.000000	97.906475  
1181.000000	97.996854  
1180.000000	98.064255  
1179.000000	98.104707  
1178.000000	98.130511  
1177.000000	98.157211  
1176.000000	98.182340  
1175.000000	98.189298  
1174.000000	98.168215  
1173.000000	98.119285  
1172.000000	98.040565  
1171.000000	97.929403  
1170.000000	97.792839  
1169.000000	97.640708  
1168.000000	97.470564  
1167.000000	97.271702  
1166.000000	97.037585  
1165.000000	96.759128  
1164.000000	96.411046  
1163.000000	95.959034  
1162.000000	95.373392  
1161.000000	94.620762  
1160.000000	93.652137  
1159.000000	92.420076  
1158.000000	90.909521  
1157.000000	89.150839  
1156.000000	87.228417  
1155.000000	85.299006  
1154.000000	83.582572  
1153.000000	82.301394  
1152.000000	81.606827  
1151.000000	81.537243  
1150.000000	82.020766  
1149.000000	82.920640  
1148.000000	84.092316  
1147.000000	85.412297  
1146.000000	86.777124  
1145.000000	88.098467  
1144.000000	89.308954  
1143.000000	90.374405  
1142.000000	91.296574  
1141.000000	92.094872  
1140.000000	92.783644  
1139.000000	93.370823  
1138.000000	93.869609  
1137.000000	94.295536  
1136.000000	94.653594  
1135.000000	94.942358  
1134.000000	95.170065  
1133.000000	95.352787  
1132.000000	95.496484  
1131.000000	95.593141  
1130.000000	95.634563  
1129.000000	95.617787  
1128.000000	95.534782  
1127.000000	95.364329  
1126.000000	95.071993  
1125.000000	94.609040  
1124.000000	93.911558  
1123.000000	92.902293  
1122.000000	91.480796  
1121.000000	89.500950  
1120.000000	86.781889  
1119.000000	83.198612  
1118.000000	78.830391  
1117.000000	74.080916  
1116.000000	69.666880  
1115.000000	66.390488  
1114.000000	64.770288  
1113.000000	64.831955  
1112.000000	66.242121  
1111.000000	68.581715  
1110.000000	71.486430  
1109.000000	74.638141  
1108.000000	77.743393  
1107.000000	80.569809  
1106.000000	82.994352  
1105.000000	84.994473  
1104.000000	86.596176  
1103.000000	87.846693  
1102.000000	88.818719  
1101.000000	89.600492  
1100.000000	90.267175  
1099.000000	90.871550  
1098.000000	91.443625  
1097.000000	91.984551  
1096.000000	92.471352  
1095.000000	92.888606  
1094.000000	93.249599  
1093.000000	93.574198  
1092.000000	93.862964  
1091.000000	94.112638  
1090.000000	94.339050  
1089.000000	94.558899  
1088.000000	94.762877  
1087.000000	94.933430  
1086.000000	95.077864  
1085.000000	95.217651  
1084.000000	95.355928  
1083.000000	95.483038  
1082.000000	95.604713  
1081.000000	95.736267  
1080.000000	95.874715  
1079.000000	96.002965  
1078.000000	96.116913  
1077.000000	96.224007  
1076.000000	96.321487  
1075.000000	96.402882  
1074.000000	96.481684  
1073.000000	96.581902  
1072.000000	96.706484  
1071.000000	96.836591  
1070.000000	96.958298  
1069.000000	97.068705  
1068.000000	97.160621  
1067.000000	97.224989  
1066.000000	97.266898  
1065.000000	97.299525  
1064.000000	97.326299  
1063.000000	97.347397  
1062.000000	97.375800  
1061.000000	97.425769  
1060.000000	97.492365  
1059.000000	97.562389  
1058.000000	97.636878  
1057.000000	97.720772  
1056.000000	97.799684  
1055.000000	97.853407  
1054.000000	97.888478  
1053.000000	97.932289  
1052.000000	97.997155  
1051.000000	98.076251  
1050.000000	98.174157  
1049.000000	98.312167  
1048.000000	98.500428  
1047.000000	98.730982  
1046.000000	98.999100  
1045.000000	99.306850  
1044.000000	99.643110  
1043.000000	99.979099  
1042.000000	100.285957 
1041.000000	100.543305 
1040.000000	100.735168 
1039.000000	100.857160 
1038.000000	100.924804 
1037.000000	100.954882 
1036.000000	100.941534 
1035.000000	100.867696 
1034.000000	100.732011 
1033.000000	100.544213 
1032.000000	100.301923 
1031.000000	99.991845  
1030.000000	99.603193  
1029.000000	99.117675  
1028.000000	98.494349  
1027.000000	97.680020  
1026.000000	96.615889  
1025.000000	95.214916  
1024.000000	93.371556  
1023.000000	91.058234  
1022.000000	88.419946  
1021.000000	85.723679  
1020.000000	83.167214  
1019.000000	80.707829  
1018.000000	78.075297  
1017.000000	75.006979  
1016.000000	71.555877  
1015.000000	68.218593  
1014.000000	65.735617  
1013.000000	64.698512  
1012.000000	65.268764  
1011.000000	67.168047  
1010.000000	69.881317  
1009.000000	72.908962  
1008.000000	75.905705  
1007.000000	78.675978  
1006.000000	81.122760  
1005.000000	83.217151  
1004.000000	84.978344  
1003.000000	86.452164  
1002.000000	87.695435  
1001.000000	88.760591  
1000.000000	89.677800  
999.000000	 90.454494  
998.000000	 91.098724  
997.000000	 91.635795  
996.000000	 92.096591  
995.000000	 92.499781  
994.000000	 92.852640  
993.000000	 93.160243  
992.000000	 93.426298  
991.000000	 93.652652  
990.000000	 93.845854  
989.000000	 94.019068  
988.000000	 94.181696  
987.000000	 94.331525  
986.000000	 94.461225  
985.000000	 94.568516  
984.000000	 94.657383  
983.000000	 94.734221  
982.000000	 94.805387  
981.000000	 94.874435  
980.000000	 94.940219  
979.000000	 95.001361  
978.000000	 95.062623  
977.000000	 95.132339  
976.000000	 95.213760  
975.000000	 95.303266  
974.000000	 95.396048  
973.000000	 95.488092  
972.000000	 95.572808  
971.000000	 95.641216  
970.000000	 95.686627  
969.000000	 95.706621  
968.000000	 95.703011  
967.000000	 95.683946  
966.000000	 95.661653  
965.000000	 95.641338  
964.000000	 95.615480  
963.000000	 95.575743  
962.000000	 95.527003  
961.000000	 95.481518  
960.000000	 95.441463  
959.000000	 95.395523  
958.000000	 95.332375  
957.000000	 95.250520  
956.000000	 95.154519  
955.000000	 95.047881  
954.000000	 94.931344  
953.000000	 94.805558  
952.000000	 94.676069  
951.000000	 94.556314  
950.000000	 94.460882  
949.000000	 94.392363  
948.000000	 94.338784  
947.000000	 94.287661  
946.000000	 94.239527  
945.000000	 94.205153  
944.000000	 94.193756  
943.000000	 94.206337  
942.000000	 94.234836  
941.000000	 94.263676  
940.000000	 94.277088  
939.000000	 94.270885  
938.000000	 94.255743  
937.000000	 94.245769  
936.000000	 94.244655  
935.000000	 94.241206  
934.000000	 94.211954  
933.000000	 94.128191  
932.000000	 93.969499  
931.000000	 93.734090  
930.000000	 93.427193  
929.000000	 93.032352  
928.000000	 92.497388  
927.000000	 91.747842  
926.000000	 90.704831  
925.000000	 89.292750  
924.000000	 87.458860  
923.000000	 85.226231  
922.000000	 82.761301  
921.000000	 80.412353  
920.000000	 78.667938  
919.000000	 77.989729  
918.000000	 78.572258  
917.000000	 80.219769  
916.000000	 82.464096  
915.000000	 84.817448  
914.000000	 86.961029  
913.000000	 88.771835  
912.000000	 90.243660  
911.000000	 91.416566  
910.000000	 92.351452  
909.000000	 93.111204  
908.000000	 93.736204  
907.000000	 94.242450  
906.000000	 94.641354  
905.000000	 94.948530  
904.000000	 95.177706  
903.000000	 95.342976  
902.000000	 95.466320  
901.000000	 95.569536  
900.000000	 95.660142  
899.000000	 95.735678  
898.000000	 95.797344  
897.000000	 95.850064  
896.000000	 95.895737  
895.000000	 95.938036  
894.000000	 95.986404  
893.000000	 96.042791  
892.000000	 96.092131  
891.000000	 96.120005  
890.000000	 96.133697  
889.000000	 96.152162  
888.000000	 96.181706  
887.000000	 96.215398  
886.000000	 96.248814  
885.000000	 96.280132  
884.000000	 96.301046  
883.000000	 96.306587  
882.000000	 96.311669  
881.000000	 96.339888  
880.000000	 96.395440  
879.000000	 96.460025  
878.000000	 96.515873  
877.000000	 96.557664  
876.000000	 96.583874  
875.000000	 96.592912  
874.000000	 96.588528  
873.000000	 96.575103  
872.000000	 96.547347  
871.000000	 96.496182  
870.000000	 96.423017  
869.000000	 96.336667  
868.000000	 96.237946  
867.000000	 96.116789  
866.000000	 95.960819  
865.000000	 95.757155  
864.000000	 95.488837  
863.000000	 95.135861  
862.000000	 94.670856  
861.000000	 94.041255  
860.000000	 93.159950  
859.000000	 91.921400  
858.000000	 90.217054  
857.000000	 87.926880  
856.000000	 84.927611  
855.000000	 81.171858  
854.000000	 76.809296  
853.000000	 72.252550  
852.000000	 68.116319  
851.000000	 65.026186  
850.000000	 63.387939  
849.000000	 63.288390  
848.000000	 64.583043  
847.000000	 67.013450  
846.000000	 70.229425  
845.000000	 73.789478  
844.000000	 77.242117  
843.000000	 80.260420  
842.000000	 82.723929  
841.000000	 84.684047  
840.000000	 86.258881  
839.000000	 87.554638  
838.000000	 88.644241  
837.000000	 89.568936  
836.000000	 90.345325  
835.000000	 90.985486  
834.000000	 91.515345  
833.000000	 91.966824  
832.000000	 92.358433  
831.000000	 92.696560  
830.000000	 92.990862  
829.000000	 93.254521  
828.000000	 93.493896  
827.000000	 93.711583  
826.000000	 93.913998  
825.000000	 94.102819  
824.000000	 94.269208  
823.000000	 94.412390  
822.000000	 94.549411  
821.000000	 94.688169  
820.000000	 94.808610  
819.000000	 94.891679  
818.000000	 94.951085  
817.000000	 95.014230  
816.000000	 95.083633  
815.000000	 95.140369  
814.000000	 95.177783  
813.000000	 95.207888  
812.000000	 95.238524  
811.000000	 95.267910  
810.000000	 95.301609  
809.000000	 95.353698  
808.000000	 95.428387  
807.000000	 95.515953  
806.000000	 95.606108  
805.000000	 95.691027  
804.000000	 95.759095  
803.000000	 95.803783  
802.000000	 95.837212  
801.000000	 95.876697  
800.000000	 95.918393  
799.000000	 95.941239  
798.000000	 95.936273  
797.000000	 95.914421  
796.000000	 95.884404  
795.000000	 95.839732  
794.000000	 95.769378  
793.000000	 95.667297  
792.000000	 95.530533  
791.000000	 95.360488  
790.000000	 95.165640  
789.000000	 94.950890  
788.000000	 94.704560  
787.000000	 94.404675  
786.000000	 94.033574  
785.000000	 93.576934  
784.000000	 93.015177  
783.000000	 92.326527  
782.000000	 91.489699  
781.000000	 90.470219  
780.000000	 89.214073  
779.000000	 87.673905  
778.000000	 85.842264  
777.000000	 83.757692  
776.000000	 81.500854  
775.000000	 79.208865  
774.000000	 77.089500  
773.000000	 75.406427  
772.000000	 74.434363  
771.000000	 74.382736  
770.000000	 75.298207  
769.000000	 77.012923  
768.000000	 79.202228  
767.000000	 81.523133  
766.000000	 83.735864  
765.000000	 85.729764  
764.000000	 87.467213  
763.000000	 88.932452  
762.000000	 90.130520  
761.000000	 91.095766  
760.000000	 91.872770  
759.000000	 92.495149  
758.000000	 92.990326  
757.000000	 93.390883  
756.000000	 93.728696  
755.000000	 94.022052  
754.000000	 94.273640  
753.000000	 94.481253  
752.000000	 94.656196  
751.000000	 94.835309  
750.000000	 95.060276  
749.000000	 95.330401  
748.000000	 95.589215  
747.000000	 95.780477  
746.000000	 95.910696  
745.000000	 96.032604  
744.000000	 96.173098  
743.000000	 96.306601  
742.000000	 96.400952  
741.000000	 96.461017  
740.000000	 96.517554  
739.000000	 96.594168  
738.000000	 96.693789  
737.000000	 96.800577  
736.000000	 96.888956  
735.000000	 96.947142  
734.000000	 96.996140  
733.000000	 97.068096  
732.000000	 97.161328  
731.000000	 97.235690  
730.000000	 97.260222  
729.000000	 97.248769  
728.000000	 97.241719  
727.000000	 97.268201  
726.000000	 97.332188  
725.000000	 97.419432  
724.000000	 97.505776  
723.000000	 97.567508  
722.000000	 97.593667  
721.000000	 97.589247  
720.000000	 97.568646  
719.000000	 97.548480  
718.000000	 97.542180  
717.000000	 97.553139  
716.000000	 97.570746  
715.000000	 97.577684  
714.000000	 97.561418  
713.000000	 97.516972  
712.000000	 97.447776  
711.000000	 97.371877  
710.000000	 97.316414  
709.000000	 97.292306  
708.000000	 97.282009  
707.000000	 97.264628  
706.000000	 97.242055  
705.000000	 97.226258  
704.000000	 97.212805  
703.000000	 97.186290  
702.000000	 97.146530  
701.000000	 97.109728  
700.000000	 97.086602  
699.000000	 97.076827  
698.000000	 97.078021  
697.000000	 97.083269  
696.000000	 97.077269  
695.000000	 97.053384  
694.000000	 97.030814  
693.000000	 97.034002  
692.000000	 97.058306  
691.000000	 97.077956  
690.000000	 97.081618  
689.000000	 97.078320  
688.000000	 97.071454  
687.000000	 97.052309  
686.000000	 97.021441  
685.000000	 96.992103  
684.000000	 96.972148  
683.000000	 96.959153  
682.000000	 96.946037  
681.000000	 96.916379  
680.000000	 96.849037  
679.000000	 96.751200  
678.000000	 96.671131  
677.000000	 96.650658  
676.000000	 96.669768  
675.000000	 96.677020  
674.000000	 96.652722  
673.000000	 96.614083  
672.000000	 96.565946  
671.000000	 96.475750  
670.000000	 96.287552  
669.000000	 95.955999  
668.000000	 95.558767  
667.000000	 95.300117  
666.000000	 95.202860  
665.000000	 95.105919  
664.000000	 94.866913  
663.000000	 94.434934  
662.000000	 93.836534  
661.000000	 93.085251  
660.000000	 92.109895  
659.000000	 90.834377  
658.000000	 89.275903  
657.000000	 87.489491  
656.000000	 85.476075  
655.000000	 83.226505  
654.000000	 80.783866  
653.000000	 78.242184  
652.000000	 75.768587  
651.000000	 73.592734  
650.000000	 71.843959  

